Phone timestamp;sensor timestamp [ns];timestamp [ms];ecg [uV]
2023-09-26T10:29:03.177;599616026849031276;0.0;-41
2023-09-26T10:29:03.184;599616026856728709;7.697433;165
2023-09-26T10:29:03.192;599616026864426142;15.394866;920
2023-09-26T10:29:03.200;599616026872123575;23.0923;2191
2023-09-26T10:29:03.207;599616026879821008;30.789732;3196
2023-09-26T10:29:03.215;599616026887518441;38.487164;3852
2023-09-26T10:29:03.223;599616026895215874;46.1846;4554
2023-09-26T10:29:03.230;599616026902913307;53.88203;5191
2023-09-26T10:29:03.238;599616026910610740;61.579464;5728
2023-09-26T10:29:03.246;599616026918308173;69.27689;6289
2023-09-26T10:29:03.253;599616026926005606;76.97433;6779
2023-09-26T10:29:03.261;599616026933703039;84.67176;7175
2023-09-26T10:29:03.269;599616026941400472;92.3692;7569
2023-09-26T10:29:03.277;599616026949097905;100.066635;7958
2023-09-26T10:29:03.284;599616026956795338;107.76406;8290
2023-09-26T10:29:03.292;599616026964492771;115.461494;8601
2023-09-26T10:29:03.300;599616026972190204;123.15893;8932
2023-09-26T10:29:03.307;599616026979887637;130.85635;9250
2023-09-26T10:29:03.315;599616026987585070;138.55379;9541
2023-09-26T10:29:03.323;599616026995282503;146.25124;9823
2023-09-26T10:29:03.330;599616027002979936;153.94865;10069
2023-09-26T10:29:03.338;599616027010677369;161.6461;10256
2023-09-26T10:29:03.346;599616027018374802;169.34352;10447
2023-09-26T10:29:03.354;599616027026072235;177.04095;10683
2023-09-26T10:29:03.361;599616027033769668;184.7384;10880
2023-09-26T10:29:03.369;599616027041467101;192.43582;11028
2023-09-26T10:29:03.377;599616027049164534;200.13327;11222
2023-09-26T10:29:03.384;599616027056861967;207.83069;11417
2023-09-26T10:29:03.392;599616027064559400;215.52812;11538
2023-09-26T10:29:03.400;599616027072256833;223.22556;11665
2023-09-26T10:29:03.407;599616027079954266;230.92299;11835
2023-09-26T10:29:03.415;599616027087651699;238.62042;11968
2023-09-26T10:29:03.423;599616027095349132;246.31786;12051
2023-09-26T10:29:03.431;599616027103046565;254.01529;12153
2023-09-26T10:29:03.438;599616027110743998;261.7127;12289
2023-09-26T10:29:03.446;599616027118441431;269.41016;12425
2023-09-26T10:29:03.454;599616027126138864;277.10757;12459
2023-09-26T10:29:03.461;599616027133836297;284.80502;12216
2023-09-26T10:29:03.469;599616027141533730;292.50247;11878
2023-09-26T10:29:03.477;599616027149231163;300.19986;11946
2023-09-26T10:29:03.484;599616027156928596;307.8973;12452
2023-09-26T10:29:03.492;599616027164626029;315.59476;12826
2023-09-26T10:29:03.500;599616027172323462;323.2922;12811
2023-09-26T10:29:03.507;599616027180020895;330.98962;12777
2023-09-26T10:29:03.515;599616027187718328;338.68704;12869
2023-09-26T10:29:03.523;599616027195415761;346.3845;12891
2023-09-26T10:29:03.531;599616027203113194;354.0819;12865
2023-09-26T10:29:03.538;599616027210810627;361.77936;12899
2023-09-26T10:29:03.546;599616027218508060;369.4768;12942
2023-09-26T10:29:03.554;599616027226205493;377.1742;12913
2023-09-26T10:29:03.561;599616027233902926;384.87164;12891
2023-09-26T10:29:03.569;599616027241600359;392.5691;12903
2023-09-26T10:29:03.577;599616027249297792;400.26654;12831
2023-09-26T10:29:03.584;599616027256995225;407.96393;12755
2023-09-26T10:29:03.592;599616027264692658;415.66138;12777
2023-09-26T10:29:03.600;599616027272390091;423.35883;12811
2023-09-26T10:29:03.608;599616027280087524;431.05624;12780
2023-09-26T10:29:03.615;599616027287784957;438.7537;12663
2023-09-26T10:29:03.623;599616027295482390;446.4511;12563
2023-09-26T10:29:03.631;599616027303179823;454.14853;12571
2023-09-26T10:29:03.638;599616027310877256;461.84598;12539
2023-09-26T10:29:03.646;599616027318574689;469.54343;12427
2023-09-26T10:29:03.654;599616027326272122;477.24084;12391
2023-09-26T10:29:03.661;599616027333969555;484.93826;12388
2023-09-26T10:29:03.669;599616027341666988;492.6357;12291
2023-09-26T10:29:03.677;599616027349364421;500.33316;12201
2023-09-26T10:29:03.685;599616027357061854;508.03058;12175
2023-09-26T10:29:03.692;599616027364759287;515.728;12094
2023-09-26T10:29:03.700;599616027372456720;523.4254;11990
2023-09-26T10:29:03.708;599616027380154153;531.12286;11954
2023-09-26T10:29:03.715;599616027387851586;538.8203;11951
2023-09-26T10:29:03.723;599616027395549019;546.51776;11920
2023-09-26T10:29:03.731;599616027403246452;554.21515;11861
2023-09-26T10:29:03.738;599616027410918822;561.8876;11813
2023-09-26T10:29:03.746;599616027418616604;569.5853;11776
2023-09-26T10:29:03.754;599616027426314386;577.28314;11718
2023-09-26T10:29:03.761;599616027434012168;584.98083;11626
2023-09-26T10:29:03.769;599616027441709950;592.67865;11536
2023-09-26T10:29:03.777;599616027449407732;600.37646;11434
2023-09-26T10:29:03.785;599616027457105514;608.0742;11322
2023-09-26T10:29:03.792;599616027464803296;615.77203;11273
2023-09-26T10:29:03.800;599616027472501078;623.46985;11225
2023-09-26T10:29:03.808;599616027480198860;631.1676;11147
2023-09-26T10:29:03.815;599616027487896642;638.86536;11101
2023-09-26T10:29:03.823;599616027495594424;646.5631;10987
2023-09-26T10:29:03.831;599616027503292206;654.2609;10792
2023-09-26T10:29:03.838;599616027510989988;661.95874;10705
2023-09-26T10:29:03.846;599616027518687770;669.6565;10671
2023-09-26T10:29:03.854;599616027526385552;677.3543;10584
2023-09-26T10:29:03.862;599616027534083334;685.052;10520
2023-09-26T10:29:03.869;599616027541781116;692.7498;10428
2023-09-26T10:29:03.877;599616027549478898;700.44763;10265
2023-09-26T10:29:03.885;599616027557176680;708.1454;10166
2023-09-26T10:29:03.892;599616027564874462;715.8432;10124
2023-09-26T10:29:03.900;599616027572572244;723.541;10042
2023-09-26T10:29:03.908;599616027580270026;731.2387;9940
2023-09-26T10:29:03.915;599616027587967808;738.9365;9867
2023-09-26T10:29:03.923;599616027595665590;746.6343;9801
2023-09-26T10:29:03.931;599616027603363372;754.3321;9731
2023-09-26T10:29:03.939;599616027611061154;762.0299;9636
2023-09-26T10:29:03.946;599616027618758936;769.72766;9520
2023-09-26T10:29:03.954;599616027626456718;777.4255;9452
2023-09-26T10:29:03.962;599616027634154500;785.1232;9401
2023-09-26T10:29:03.969;599616027641852282;792.821;9277
2023-09-26T10:29:03.977;599616027649550064;800.5188;9184
2023-09-26T10:29:03.985;599616027657247846;808.21655;9111
2023-09-26T10:29:03.992;599616027664945628;815.91437;8786
2023-09-26T10:29:04.000;599616027672643410;823.6122;8266
2023-09-26T10:29:04.008;599616027680341192;831.3099;8043
2023-09-26T10:29:04.016;599616027688038974;839.0077;8332
2023-09-26T10:29:04.023;599616027695736756;846.70544;8645
2023-09-26T10:29:04.031;599616027703434538;854.40326;8562
2023-09-26T10:29:04.039;599616027711132320;862.1011;8378
2023-09-26T10:29:04.046;599616027718830102;869.7988;8341
2023-09-26T10:29:04.054;599616027726527884;877.4966;8283
2023-09-26T10:29:04.062;599616027734225666;885.1944;8142
2023-09-26T10:29:04.069;599616027741923448;892.89215;8030
2023-09-26T10:29:04.077;599616027749621230;900.58997;7967
2023-09-26T10:29:04.085;599616027757319012;908.2877;7887
2023-09-26T10:29:04.092;599616027765016794;915.98553;7797
2023-09-26T10:29:04.100;599616027772714576;923.68335;7693
2023-09-26T10:29:04.108;599616027780412358;931.38104;7591
2023-09-26T10:29:04.116;599616027788110140;939.07886;7535
2023-09-26T10:29:04.123;599616027795807922;946.7766;7469
2023-09-26T10:29:04.131;599616027803505704;954.4744;7353
2023-09-26T10:29:04.139;599616027811203486;962.17224;7246
2023-09-26T10:29:04.146;599616027818901268;969.87;7195
2023-09-26T10:29:04.154;599616027826599050;977.56775;7129
2023-09-26T10:29:04.162;599616027834296832;985.26556;7039
2023-09-26T10:29:04.169;599616027841994614;992.9633;6988
2023-09-26T10:29:04.177;599616027849692396;1000.66113;6918
2023-09-26T10:29:04.185;599616027857390178;1008.3589;6782
2023-09-26T10:29:04.193;599616027865087960;1016.0567;6677
2023-09-26T10:29:04.200;599616027872785742;1023.7545;6629
2023-09-26T10:29:04.208;599616027880483524;1031.4523;6578
2023-09-26T10:29:04.216;599616027888181306;1039.15;6493
2023-09-26T10:29:04.223;599616027895879088;1046.8478;6376
2023-09-26T10:29:04.231;599616027903576870;1054.5457;6286
2023-09-26T10:29:04.239;599616027911274652;1062.2434;6274
2023-09-26T10:29:04.246;599616027918972434;1069.9412;6243
2023-09-26T10:29:04.254;599616027926670216;1077.6389;6150
2023-09-26T10:29:04.262;599616027934367998;1085.3367;6102
2023-09-26T10:29:04.270;599616027942065780;1093.0345;6097
2023-09-26T10:29:04.277;599616027949763562;1100.7323;6051
2023-09-26T10:29:04.285;599616027957461344;1108.43;5992
2023-09-26T10:29:04.293;599616027965159126;1116.1279;5951
2023-09-26T10:29:04.300;599616027972877016;1123.8457;5883
2023-09-26T10:29:04.308;599616027980574519;1131.5433;5779
2023-09-26T10:29:04.316;599616027988272022;1139.2407;5689
2023-09-26T10:29:04.323;599616027995969525;1146.9382;5647
2023-09-26T10:29:04.331;599616028003667028;1154.6357;5592
2023-09-26T10:29:04.339;599616028011364531;1162.3333;5504
2023-09-26T10:29:04.347;599616028019062034;1170.0308;5453
2023-09-26T10:29:04.354;599616028026759537;1177.7283;5417
2023-09-26T10:29:04.362;599616028034457040;1185.4258;5315
2023-09-26T10:29:04.370;599616028042154543;1193.1233;5191
2023-09-26T10:29:04.377;599616028049852046;1200.8207;5137
2023-09-26T10:29:04.385;599616028057549549;1208.5183;5103
2023-09-26T10:29:04.393;599616028065247052;1216.2158;5038
2023-09-26T10:29:04.400;599616028072944555;1223.9132;4984
2023-09-26T10:29:04.408;599616028080642058;1231.6107;4921
2023-09-26T10:29:04.416;599616028088339561;1239.3082;4836
2023-09-26T10:29:04.424;599616028096037064;1247.0059;4780
2023-09-26T10:29:04.431;599616028103734567;1254.7032;4739
2023-09-26T10:29:04.439;599616028111432070;1262.4008;4656
2023-09-26T10:29:04.447;599616028119129573;1270.0983;4552
2023-09-26T10:29:04.454;599616028126827076;1277.7959;4498
2023-09-26T10:29:04.462;599616028134524579;1285.4933;4484
2023-09-26T10:29:04.470;599616028142222082;1293.1908;4450
2023-09-26T10:29:04.477;599616028149919585;1300.8883;4374
2023-09-26T10:29:04.485;599616028157617088;1308.5858;4275
2023-09-26T10:29:04.493;599616028165314591;1316.2832;4204
2023-09-26T10:29:04.500;599616028173012094;1323.9808;4163
2023-09-26T10:29:04.508;599616028180709597;1331.6783;4119
2023-09-26T10:29:04.516;599616028188407100;1339.3759;4110
2023-09-26T10:29:04.524;599616028196104603;1347.0732;4095
2023-09-26T10:29:04.531;599616028203802106;1354.7709;3898
2023-09-26T10:29:04.539;599616028211499609;1362.4684;3430
2023-09-26T10:29:04.547;599616028219197112;1370.1659;3038
2023-09-26T10:29:04.554;599616028226894615;1377.8633;3162
2023-09-26T10:29:04.562;599616028234592118;1385.5608;3595
2023-09-26T10:29:04.570;599616028242289621;1393.2584;3755
2023-09-26T10:29:04.577;599616028249987124;1400.9559;3648
2023-09-26T10:29:04.585;599616028257684627;1408.6533;3617
2023-09-26T10:29:04.593;599616028265382130;1416.3508;3592
2023-09-26T10:29:04.601;599616028273079633;1424.0483;3481
2023-09-26T10:29:04.608;599616028280777136;1431.746;3432
2023-09-26T10:29:04.616;599616028288474639;1439.4434;3415
2023-09-26T10:29:04.624;599616028296172142;1447.1409;3335
2023-09-26T10:29:04.631;599616028303869645;1454.8384;3267
2023-09-26T10:29:04.639;599616028311567148;1462.5359;3233
2023-09-26T10:29:04.647;599616028319264651;1470.2334;3189
2023-09-26T10:29:04.654;599616028326962154;1477.9309;3148
2023-09-26T10:29:04.662;599616028334659657;1485.6284;3123
2023-09-26T10:29:04.670;599616028342357160;1493.3258;3080
2023-09-26T10:29:04.678;599616028350054663;1501.0233;3019
2023-09-26T10:29:04.685;599616028357752166;1508.721;2973
2023-09-26T10:29:04.693;599616028365449669;1516.4185;2932
2023-09-26T10:29:04.701;599616028373147172;1524.1158;2888
2023-09-26T10:29:04.708;599616028380844675;1531.8134;2844
2023-09-26T10:29:04.716;599616028388542178;1539.5109;2800
2023-09-26T10:29:04.724;599616028396239681;1547.2085;2732
2023-09-26T10:29:04.731;599616028403937184;1554.9059;2662
2023-09-26T10:29:04.739;599616028411634687;1562.6034;2623
2023-09-26T10:29:04.747;599616028419332190;1570.3009;2587
2023-09-26T10:29:04.754;599616028427029693;1577.9984;2536
2023-09-26T10:29:04.762;599616028434727196;1585.6959;2485
2023-09-26T10:29:04.770;599616028442424699;1593.3934;2424
2023-09-26T10:29:04.778;599616028450122202;1601.091;2375
2023-09-26T10:29:04.785;599616028457819705;1608.7885;2370
2023-09-26T10:29:04.793;599616028465517208;1616.4858;2373
2023-09-26T10:29:04.801;599616028473214711;1624.1835;2346
2023-09-26T10:29:04.808;599616028480912214;1631.881;2310
2023-09-26T10:29:04.816;599616028488609717;1639.5785;2295
2023-09-26T10:29:04.824;599616028496307220;1647.2759;2288
2023-09-26T10:29:04.831;599616028504004723;1654.9734;2268
2023-09-26T10:29:04.839;599616028511702226;1662.671;2242
2023-09-26T10:29:04.847;599616028519399729;1670.3685;2215
2023-09-26T10:29:04.855;599616028527097232;1678.0659;2181
2023-09-26T10:29:04.862;599616028534784770;1685.7534;2140
2023-09-26T10:29:04.870;599616028542482412;1693.4512;2110
2023-09-26T10:29:04.878;599616028550180054;1701.1488;2093
2023-09-26T10:29:04.885;599616028557877696;1708.8464;2069
2023-09-26T10:29:04.893;599616028565575338;1716.544;2035
2023-09-26T10:29:04.901;599616028573272980;1724.2417;1989
2023-09-26T10:29:04.908;599616028580970622;1731.9393;1950
2023-09-26T10:29:04.916;599616028588668264;1739.637;1926
2023-09-26T10:29:04.924;599616028596365906;1747.3347;1914
2023-09-26T10:29:04.932;599616028604063548;1755.0323;1906
2023-09-26T10:29:04.939;599616028611761190;1762.7299;1894
2023-09-26T10:29:04.947;599616028619458832;1770.4275;1851
2023-09-26T10:29:04.955;599616028627156474;1778.1252;1770
2023-09-26T10:29:04.962;599616028634854116;1785.8229;1707
2023-09-26T10:29:04.970;599616028642551758;1793.5205;1685
2023-09-26T10:29:04.978;599616028650249400;1801.2181;1644
2023-09-26T10:29:04.985;599616028657947042;1808.9158;1605
2023-09-26T10:29:04.993;599616028665644684;1816.6134;1612
2023-09-26T10:29:05.001;599616028673342326;1824.311;1603
2023-09-26T10:29:05.009;599616028681039968;1832.0087;1574
2023-09-26T10:29:05.016;599616028688737610;1839.7064;1574
2023-09-26T10:29:05.024;599616028696435252;1847.404;1569
2023-09-26T10:29:05.032;599616028704132894;1855.1016;1513
2023-09-26T10:29:05.039;599616028711830536;1862.7992;1464
2023-09-26T10:29:05.047;599616028719528178;1870.497;1445
2023-09-26T10:29:05.055;599616028727225820;1878.1946;1418
2023-09-26T10:29:05.062;599616028734923462;1885.8922;1416
2023-09-26T10:29:05.070;599616028742621104;1893.5898;1423
2023-09-26T10:29:05.078;599616028750318746;1901.2875;1253
2023-09-26T10:29:05.085;599616028758016388;1908.9851;833
2023-09-26T10:29:05.093;599616028765714030;1916.6827;514
2023-09-26T10:29:05.101;599616028773411672;1924.3804;733
2023-09-26T10:29:05.109;599616028781109314;1932.0781;1226
2023-09-26T10:29:05.116;599616028788806956;1939.7758;1350
2023-09-26T10:29:05.124;599616028796504598;1947.4733;1204
2023-09-26T10:29:05.132;599616028804202240;1955.1709;1214
2023-09-26T10:29:05.139;599616028811899882;1962.8687;1260
2023-09-26T10:29:05.147;599616028819597524;1970.5663;1204
2023-09-26T10:29:05.155;599616028827295166;1978.2639;1168
2023-09-26T10:29:05.162;599616028834992808;1985.9614;1173
2023-09-26T10:29:05.170;599616028842690450;1993.6592;1161
2023-09-26T10:29:05.178;599616028850388092;2001.3568;1136
2023-09-26T10:29:05.186;599616028858085734;2009.0544;1115
2023-09-26T10:29:05.193;599616028865783376;2016.7521;1097
2023-09-26T10:29:05.201;599616028873481018;2024.4498;1071
2023-09-26T10:29:05.209;599616028881178660;2032.1473;1034
2023-09-26T10:29:05.216;599616028888876302;2039.845;1020
2023-09-26T10:29:05.224;599616028896573944;2047.5426;1015
2023-09-26T10:29:05.232;599616028904271586;2055.2402;983
2023-09-26T10:29:05.239;599616028911969228;2062.938;937
2023-09-26T10:29:05.247;599616028919666870;2070.6357;908
2023-09-26T10:29:05.255;599616028927364512;2078.3333;901
2023-09-26T10:29:05.263;599616028935062154;2086.0308;881
2023-09-26T10:29:05.270;599616028942759796;2093.7285;842
2023-09-26T10:29:05.278;599616028950457438;2101.4263;799
2023-09-26T10:29:05.286;599616028958155080;2109.1238;770
2023-09-26T10:29:05.293;599616028965852722;2116.8215;740
2023-09-26T10:29:05.301;599616028973550364;2124.519;699
2023-09-26T10:29:05.309;599616028981248006;2132.2168;663
2023-09-26T10:29:05.316;599616028988945648;2139.9143;638
2023-09-26T10:29:05.324;599616028996643290;2147.6118;631
2023-09-26T10:29:05.332;599616029004340932;2155.3096;634
2023-09-26T10:29:05.340;599616029012038574;2163.0073;641
2023-09-26T10:29:05.347;599616029019736216;2170.7048;658
2023-09-26T10:29:05.355;599616029027433858;2178.4026;672
2023-09-26T10:29:05.363;599616029035131500;2186.1003;675
2023-09-26T10:29:05.370;599616029042829142;2193.7979;682
2023-09-26T10:29:05.378;599616029050526784;2201.4956;697
2023-09-26T10:29:05.386;599616029058224426;2209.193;687
2023-09-26T10:29:05.393;599616029065922068;2216.8909;653
2023-09-26T10:29:05.401;599616029073619710;2224.5886;638
2023-09-26T10:29:05.409;599616029081317352;2232.286;643
2023-09-26T10:29:05.416;599616029089014994;2239.9836;636
2023-09-26T10:29:05.424;599616029096702622;2247.6714;617
2023-09-26T10:29:05.432;599616029104400404;2255.3691;604
2023-09-26T10:29:05.440;599616029112098186;2263.067;602
2023-09-26T10:29:05.447;599616029119795968;2270.765;600
2023-09-26T10:29:05.455;599616029127493750;2278.4624;592
2023-09-26T10:29:05.463;599616029135191532;2286.1604;580
2023-09-26T10:29:05.470;599616029142889314;2293.8582;575
2023-09-26T10:29:05.478;599616029150587096;2301.5557;561
2023-09-26T10:29:05.486;599616029158284878;2309.2537;524
2023-09-26T10:29:05.493;599616029165982660;2316.9514;502
2023-09-26T10:29:05.501;599616029173680442;2324.6492;510
2023-09-26T10:29:05.509;599616029181378224;2332.347;510
2023-09-26T10:29:05.517;599616029189076006;2340.045;500
2023-09-26T10:29:05.524;599616029196773788;2347.7424;490
2023-09-26T10:29:05.532;599616029204471570;2355.4404;463
2023-09-26T10:29:05.540;599616029212169352;2363.138;422
2023-09-26T10:29:05.547;599616029219867134;2370.836;403
2023-09-26T10:29:05.555;599616029227564916;2378.5337;393
2023-09-26T10:29:05.563;599616029235262698;2386.2312;378
2023-09-26T10:29:05.570;599616029242960480;2393.9292;376
2023-09-26T10:29:05.578;599616029250658262;2401.627;381
2023-09-26T10:29:05.586;599616029258356044;2409.3247;378
2023-09-26T10:29:05.594;599616029266053826;2417.0225;369
2023-09-26T10:29:05.601;599616029273751608;2424.7205;347
2023-09-26T10:29:05.609;599616029281449390;2432.418;323
2023-09-26T10:29:05.617;599616029289147172;2440.116;298
2023-09-26T10:29:05.624;599616029296844954;2447.8137;276
2023-09-26T10:29:05.632;599616029304542736;2455.5115;301
2023-09-26T10:29:05.640;599616029312240518;2463.2092;361
2023-09-26T10:29:05.647;599616029319938300;2470.9072;267
2023-09-26T10:29:05.655;599616029327636082;2478.6047;-82
2023-09-26T10:29:05.663;599616029335333864;2486.3025;-429
2023-09-26T10:29:05.671;599616029343031646;2494.0005;-354
2023-09-26T10:29:05.678;599616029350729428;2501.698;114
2023-09-26T10:29:05.686;599616029358427210;2509.396;391
2023-09-26T10:29:05.694;599616029366124992;2517.0938;318
2023-09-26T10:29:05.701;599616029373822774;2524.7915;291
2023-09-26T10:29:05.709;599616029381520556;2532.4893;347
2023-09-26T10:29:05.717;599616029389218338;2540.1873;325
2023-09-26T10:29:05.724;599616029396916120;2547.8848;308
2023-09-26T10:29:05.732;599616029404613902;2555.5828;325
2023-09-26T10:29:05.740;599616029412311684;2563.2803;323
2023-09-26T10:29:05.747;599616029420009466;2570.9783;315
2023-09-26T10:29:05.755;599616029427707248;2578.676;310
2023-09-26T10:29:05.763;599616029435405030;2586.3735;293
2023-09-26T10:29:05.771;599616029443102812;2594.0715;293
2023-09-26T10:29:05.778;599616029450800594;2601.7693;301
2023-09-26T10:29:05.786;599616029458498376;2609.467;279
2023-09-26T10:29:05.794;599616029466196158;2617.1648;250
2023-09-26T10:29:05.801;599616029473893940;2624.8628;245
2023-09-26T10:29:05.809;599616029481591722;2632.5603;250
2023-09-26T10:29:05.817;599616029489289504;2640.2583;242
2023-09-26T10:29:05.824;599616029496987286;2647.956;225
2023-09-26T10:29:05.832;599616029504685068;2655.6538;233
2023-09-26T10:29:05.840;599616029512382850;2663.3516;250
2023-09-26T10:29:05.848;599616029520080632;2671.0496;223
2023-09-26T10:29:05.855;599616029527778414;2678.747;177
2023-09-26T10:29:05.863;599616029535476196;2686.4448;170
2023-09-26T10:29:05.871;599616029543173978;2694.1428;165
2023-09-26T10:29:05.878;599616029550871760;2701.8403;131
2023-09-26T10:29:05.886;599616029558569542;2709.5383;116
2023-09-26T10:29:05.894;599616029566267324;2717.236;116
2023-09-26T10:29:05.901;599616029573965106;2724.9338;104
2023-09-26T10:29:05.909;599616029581662888;2732.6316;121
2023-09-26T10:29:05.917;599616029589360670;2740.3296;148
2023-09-26T10:29:05.925;599616029597058452;2748.027;136
2023-09-26T10:29:05.932;599616029604756234;2755.725;133
2023-09-26T10:29:05.940;599616029612454016;2763.4226;172
2023-09-26T10:29:05.948;599616029620151798;2771.1206;204
2023-09-26T10:29:05.955;599616029627849580;2778.8184;191
2023-09-26T10:29:05.963;599616029635547362;2786.5159;170
2023-09-26T10:29:05.971;599616029643245144;2794.2139;167
2023-09-26T10:29:05.978;599616029650942926;2801.9116;170
2023-09-26T10:29:05.986;599616029658675864;2809.6445;170
2023-09-26T10:29:05.994;599616029666373158;2817.342;160
2023-09-26T10:29:06.002;599616029674070452;2825.039;140
2023-09-26T10:29:06.009;599616029681767746;2832.7366;123
2023-09-26T10:29:06.017;599616029689465040;2840.4336;109
2023-09-26T10:29:06.025;599616029697162334;2848.131;109
2023-09-26T10:29:06.032;599616029704859628;2855.8284;116
2023-09-26T10:29:06.040;599616029712556922;2863.5256;114
2023-09-26T10:29:06.048;599616029720254216;2871.2231;104
2023-09-26T10:29:06.055;599616029727951510;2878.9202;85
2023-09-26T10:29:06.063;599616029735648804;2886.6177;58
2023-09-26T10:29:06.071;599616029743346098;2894.3147;46
2023-09-26T10:29:06.079;599616029751043392;2902.0122;58
2023-09-26T10:29:06.086;599616029758740686;2909.7092;72
2023-09-26T10:29:06.094;599616029766437980;2917.4067;48
2023-09-26T10:29:06.102;599616029774135274;2925.1038;-9
2023-09-26T10:29:06.109;599616029781832568;2932.8013;-38
2023-09-26T10:29:06.117;599616029789529862;2940.4988;-24
2023-09-26T10:29:06.125;599616029797227156;2948.1958;-53
2023-09-26T10:29:06.132;599616029804924450;2955.8933;-119
2023-09-26T10:29:06.140;599616029812621744;2963.5903;-114
2023-09-26T10:29:06.148;599616029820319038;2971.2878;-65
2023-09-26T10:29:06.155;599616029828016332;2978.9849;-87
2023-09-26T10:29:06.163;599616029835713626;2986.6824;-128
2023-09-26T10:29:06.171;599616029843410920;2994.3796;-111
2023-09-26T10:29:06.179;599616029851108214;3002.077;-102
2023-09-26T10:29:06.186;599616029858805508;3009.7744;-119
2023-09-26T10:29:06.194;599616029866502802;3017.4714;-99
2023-09-26T10:29:06.202;599616029874200096;3025.169;-53
2023-09-26T10:29:06.209;599616029881897390;3032.866;-24
2023-09-26T10:29:06.217;599616029889594684;3040.5635;-92
2023-09-26T10:29:06.225;599616029897291978;3048.2605;-357
2023-09-26T10:29:06.232;599616029904989272;3055.958;-653
2023-09-26T10:29:06.240;599616029912686566;3063.6553;-607
2023-09-26T10:29:06.248;599616029920383860;3071.3525;-233
2023-09-26T10:29:06.256;599616029928081154;3079.05;-7
2023-09-26T10:29:06.263;599616029935778448;3086.747;-55
2023-09-26T10:29:06.271;599616029943475742;3094.4446;-80
2023-09-26T10:29:06.279;599616029951173036;3102.1416;-38
2023-09-26T10:29:06.286;599616029958870330;3109.839;-51
2023-09-26T10:29:06.294;599616029966567624;3117.5364;-97
2023-09-26T10:29:06.302;599616029974264918;3125.2336;-116
2023-09-26T10:29:06.309;599616029981962212;3132.931;-97
2023-09-26T10:29:06.317;599616029989659506;3140.6282;-68
2023-09-26T10:29:06.325;599616029997356800;3148.3257;-60
2023-09-26T10:29:06.333;599616030005054094;3156.0227;-77
2023-09-26T10:29:06.340;599616030012751388;3163.7202;-111
2023-09-26T10:29:06.348;599616030020448682;3171.4172;-119
2023-09-26T10:29:06.356;599616030028145976;3179.1147;-102
2023-09-26T10:29:06.363;599616030035843270;3186.812;-97
2023-09-26T10:29:06.371;599616030043540564;3194.5093;-102
2023-09-26T10:29:06.379;599616030051237858;3202.2065;-114
2023-09-26T10:29:06.386;599616030058935152;3209.9038;-126
2023-09-26T10:29:06.394;599616030066632446;3217.6013;-116
2023-09-26T10:29:06.402;599616030074329740;3225.2983;-116
2023-09-26T10:29:06.409;599616030082027034;3232.9958;-140
2023-09-26T10:29:06.417;599616030089724328;3240.6929;-140
2023-09-26T10:29:06.425;599616030097421622;3248.3904;-138
2023-09-26T10:29:06.433;599616030105118916;3256.0876;-167
2023-09-26T10:29:06.440;599616030112816210;3263.785;-182
2023-09-26T10:29:06.448;599616030120513504;3271.4822;-174
2023-09-26T10:29:06.456;599616030128210798;3279.1794;-189
2023-09-26T10:29:06.463;599616030135908092;3286.877;-201
2023-09-26T10:29:06.471;599616030143605386;3294.574;-191
2023-09-26T10:29:06.479;599616030151302680;3302.2715;-177
2023-09-26T10:29:06.486;599616030158999974;3309.9688;-148
2023-09-26T10:29:06.494;599616030166697268;3317.666;-111
2023-09-26T10:29:06.502;599616030174394562;3325.3633;-89
2023-09-26T10:29:06.510;599616030182091856;3333.0605;-77
2023-09-26T10:29:06.517;599616030189789150;3340.7578;-77
2023-09-26T10:29:06.525;599616030197486444;3348.455;-87
2023-09-26T10:29:06.533;599616030205183738;3356.1526;-85
2023-09-26T10:29:06.540;599616030212881032;3363.8496;-72
2023-09-26T10:29:06.548;599616030220548274;3371.5168;-68
2023-09-26T10:29:06.556;599616030228245986;3379.2146;-68
2023-09-26T10:29:06.563;599616030235943698;3386.9126;-77
2023-09-26T10:29:06.571;599616030243641410;3394.61;-87
2023-09-26T10:29:06.579;599616030251339122;3402.3079;-75
2023-09-26T10:29:06.587;599616030259036834;3410.0056;-65
2023-09-26T10:29:06.594;599616030266734546;3417.7031;-77
2023-09-26T10:29:06.602;599616030274432258;3425.4011;-89
2023-09-26T10:29:06.610;599616030282129970;3433.0986;-109
2023-09-26T10:29:06.617;599616030289827682;3440.7964;-133
2023-09-26T10:29:06.625;599616030297525394;3448.4941;-136
2023-09-26T10:29:06.633;599616030305223106;3456.1917;-138
2023-09-26T10:29:06.640;599616030312920818;3463.8896;-155
2023-09-26T10:29:06.648;599616030320618530;3471.5874;-155
2023-09-26T10:29:06.656;599616030328316242;3479.285;-167
2023-09-26T10:29:06.663;599616030336013954;3486.9827;-204
2023-09-26T10:29:06.671;599616030343711666;3494.6804;-213
2023-09-26T10:29:06.679;599616030351409378;3502.378;-213
2023-09-26T10:29:06.687;599616030359107090;3510.076;-228
2023-09-26T10:29:06.694;599616030366804802;3517.7737;-221
2023-09-26T10:29:06.702;599616030374502514;3525.4712;-204
2023-09-26T10:29:06.710;599616030382200226;3533.169;-199
2023-09-26T10:29:06.717;599616030389897938;3540.8665;-194
2023-09-26T10:29:06.725;599616030397595650;3548.5645;-184
2023-09-26T10:29:06.733;599616030405293362;3556.2622;-177
2023-09-26T10:29:06.740;599616030412991074;3563.9597;-177
2023-09-26T10:29:06.748;599616030420688786;3571.6575;-184
2023-09-26T10:29:06.756;599616030428386498;3579.3552;-182
2023-09-26T10:29:06.764;599616030436084210;3587.053;-126
2023-09-26T10:29:06.771;599616030443781922;3594.7507;-82
2023-09-26T10:29:06.779;599616030451479634;3602.4485;-213
2023-09-26T10:29:06.787;599616030459177346;3610.146;-561
2023-09-26T10:29:06.794;599616030466875058;3617.8438;-825
2023-09-26T10:29:06.802;599616030474572770;3625.5413;-634
2023-09-26T10:29:06.810;599616030482270482;3633.2393;-179
2023-09-26T10:29:06.817;599616030489968194;3640.937;-26
2023-09-26T10:29:06.825;599616030497665906;3648.6345;-131
2023-09-26T10:29:06.833;599616030505363618;3656.3323;-119
2023-09-26T10:29:06.841;599616030513061330;3664.03;-65
2023-09-26T10:29:06.848;599616030520759042;3671.7278;-106
2023-09-26T10:29:06.856;599616030528456754;3679.4255;-123
2023-09-26T10:29:06.864;599616030536154466;3687.1233;-89
2023-09-26T10:29:06.871;599616030543852178;3694.8208;-87
2023-09-26T10:29:06.879;599616030551549890;3702.5186;-109
2023-09-26T10:29:06.887;599616030559247602;3710.2166;-106
2023-09-26T10:29:06.894;599616030566945314;3717.914;-104
2023-09-26T10:29:06.902;599616030574643026;3725.6118;-109
2023-09-26T10:29:06.910;599616030582340738;3733.3093;-106
2023-09-26T10:29:06.918;599616030590038450;3741.007;-102
2023-09-26T10:29:06.925;599616030597736162;3748.7048;-104
2023-09-26T10:29:06.933;599616030605433874;3756.4026;-111
2023-09-26T10:29:06.941;599616030613131586;3764.1003;-121
2023-09-26T10:29:06.948;599616030620829298;3771.798;-123
2023-09-26T10:29:06.956;599616030628527010;3779.4956;-126
2023-09-26T10:29:06.964;599616030636224722;3787.1934;-133
2023-09-26T10:29:06.971;599616030643922434;3794.8914;-148
2023-09-26T10:29:06.979;599616030651620146;3802.5889;-157
2023-09-26T10:29:06.987;599616030659317858;3810.2866;-160
2023-09-26T10:29:06.994;599616030667015570;3817.9844;-165
2023-09-26T10:29:07.002;599616030674713282;3825.682;-174
2023-09-26T10:29:07.010;599616030682410994;3833.38;-184
2023-09-26T10:29:07.018;599616030690108706;3841.0774;-208
2023-09-26T10:29:07.025;599616030697806418;3848.7751;-223
2023-09-26T10:29:07.033;599616030705504130;3856.473;-211
2023-09-26T10:29:07.041;599616030713201842;3864.1704;-194
2023-09-26T10:29:07.048;599616030720899554;3871.8682;-177
2023-09-26T10:29:07.056;599616030728597266;3879.5662;-155
2023-09-26T10:29:07.064;599616030736294978;3887.2637;-136
2023-09-26T10:29:07.071;599616030743992690;3894.9614;-126
2023-09-26T10:29:07.079;599616030751690402;3902.6592;-119
2023-09-26T10:29:07.087;599616030759388114;3910.3567;-109
2023-09-26T10:29:07.095;599616030767085826;3918.0547;-99
2023-09-26T10:29:07.102;599616030774783538;3925.7524;-97
2023-09-26T10:29:07.110;599616030782511390;3933.4802;-104
2023-09-26T10:29:07.118;599616030790208684;3941.1772;-106
2023-09-26T10:29:07.125;599616030797905978;3948.8748;-106
2023-09-26T10:29:07.133;599616030805603272;3956.572;-121
2023-09-26T10:29:07.141;599616030813300566;3964.2693;-148
2023-09-26T10:29:07.148;599616030820997860;3971.9666;-150
2023-09-26T10:29:07.156;599616030828695154;3979.6638;-140
2023-09-26T10:29:07.164;599616030836392448;3987.3613;-150
2023-09-26T10:29:07.172;599616030844089742;3995.0583;-165
2023-09-26T10:29:07.179;599616030851787036;4002.7559;-160
2023-09-26T10:29:07.187;599616030859484330;4010.453;-153
2023-09-26T10:29:07.195;599616030867181624;4018.1504;-167
2023-09-26T10:29:07.202;599616030874878918;4025.8477;-191
2023-09-26T10:29:07.210;599616030882576212;4033.545;-199
2023-09-26T10:29:07.218;599616030890273506;4041.2422;-216
2023-09-26T10:29:07.225;599616030897970800;4048.9395;-245
2023-09-26T10:29:07.233;599616030905668094;4056.637;-242
2023-09-26T10:29:07.241;599616030913365388;4064.334;-233
2023-09-26T10:29:07.249;599616030921062682;4072.0315;-242
2023-09-26T10:29:07.256;599616030928759976;4079.7288;-252
2023-09-26T10:29:07.264;599616030936457270;4087.426;-242
2023-09-26T10:29:07.272;599616030944154564;4095.1233;-238
2023-09-26T10:29:07.279;599616030951851858;4102.821;-238
2023-09-26T10:29:07.287;599616030959549152;4110.5176;-223
2023-09-26T10:29:07.295;599616030967246446;4118.2153;-216
2023-09-26T10:29:07.302;599616030974943740;4125.9126;-230
2023-09-26T10:29:07.310;599616030982641034;4133.61;-233
2023-09-26T10:29:07.318;599616030990338328;4141.307;-191
2023-09-26T10:29:07.326;599616030998035622;4149.0044;-133
2023-09-26T10:29:07.333;599616031005732916;4156.7017;-155
2023-09-26T10:29:07.341;599616031013430210;4164.399;-388
2023-09-26T10:29:07.349;599616031021127504;4172.096;-723
2023-09-26T10:29:07.356;599616031028824798;4179.7935;-774
2023-09-26T10:29:07.364;599616031036522092;4187.4907;-420
2023-09-26T10:29:07.372;599616031044219386;4195.188;-109
2023-09-26T10:29:07.379;599616031051916680;4202.8853;-138
2023-09-26T10:29:07.387;599616031059613974;4210.583;-191
2023-09-26T10:29:07.395;599616031067311268;4218.28;-136
2023-09-26T10:29:07.402;599616031075008562;4225.9775;-145
2023-09-26T10:29:07.410;599616031082705856;4233.6743;-170
2023-09-26T10:29:07.418;599616031090403150;4241.372;-143
2023-09-26T10:29:07.426;599616031098100444;4249.069;-148
2023-09-26T10:29:07.433;599616031105797738;4256.7666;-160
2023-09-26T10:29:07.441;599616031113495032;4264.464;-148
2023-09-26T10:29:07.449;599616031121192326;4272.161;-153
2023-09-26T10:29:07.456;599616031128889620;4279.8584;-167
2023-09-26T10:29:07.464;599616031136586914;4287.5557;-170
2023-09-26T10:29:07.472;599616031144284208;4295.253;-177
2023-09-26T10:29:07.479;599616031151981502;4302.95;-182
2023-09-26T10:29:07.487;599616031159678796;4310.6475;-172
2023-09-26T10:29:07.495;599616031167376090;4318.3447;-165
2023-09-26T10:29:07.503;599616031175073384;4326.042;-187
2023-09-26T10:29:07.510;599616031182770678;4333.7397;-218
2023-09-26T10:29:07.518;599616031190467972;4341.437;-221
2023-09-26T10:29:07.526;599616031198165266;4349.134;-216
2023-09-26T10:29:07.533;599616031205862560;4356.831;-223
2023-09-26T10:29:07.541;599616031213559854;4364.529;-238
2023-09-26T10:29:07.549;599616031221257148;4372.226;-250
2023-09-26T10:29:07.556;599616031228954442;4379.923;-257
2023-09-26T10:29:07.564;599616031236651736;4387.62;-262
2023-09-26T10:29:07.572;599616031244349030;4395.318;-259
2023-09-26T10:29:07.580;599616031252046324;4403.015;-259
2023-09-26T10:29:07.587;599616031259743618;4410.7124;-272
2023-09-26T10:29:07.595;599616031267440912;4418.4097;-289
2023-09-26T10:29:07.603;599616031275138206;4426.107;-281
2023-09-26T10:29:07.610;599616031282835500;4433.804;-242
2023-09-26T10:29:07.618;599616031290532794;4441.5015;-206
2023-09-26T10:29:07.626;599616031298230088;4449.1987;-201
2023-09-26T10:29:07.633;599616031305927382;4456.896;-221
2023-09-26T10:29:07.641;599616031313624676;4464.5933;-245
2023-09-26T10:29:07.649;599616031321321970;4472.291;-255
2023-09-26T10:29:07.656;599616031329019264;4479.9883;-257
2023-09-26T10:29:07.664;599616031336716558;4487.685;-252
2023-09-26T10:29:07.672;599616031344393804;4495.363;-252
2023-09-26T10:29:07.680;599616031352091377;4503.06;-274
2023-09-26T10:29:07.687;599616031359788950;4510.758;-284
2023-09-26T10:29:07.695;599616031367486523;4518.455;-276
2023-09-26T10:29:07.703;599616031375184096;4526.153;-264
2023-09-26T10:29:07.710;599616031382881669;4533.8506;-252
2023-09-26T10:29:07.718;599616031390579242;4541.548;-262
2023-09-26T10:29:07.726;599616031398276815;4549.2456;-303
2023-09-26T10:29:07.733;599616031405974388;4556.9434;-340
2023-09-26T10:29:07.741;599616031413671961;4564.6406;-352
2023-09-26T10:29:07.749;599616031421369534;4572.3384;-335
2023-09-26T10:29:07.757;599616031429067107;4580.0356;-332
2023-09-26T10:29:07.764;599616031436764680;4587.7334;-359
2023-09-26T10:29:07.772;599616031444462253;4595.431;-374
2023-09-26T10:29:07.780;599616031452159826;4603.1284;-383
2023-09-26T10:29:07.787;599616031459857399;4610.826;-415
2023-09-26T10:29:07.795;599616031467554972;4618.5234;-437
2023-09-26T10:29:07.803;599616031475252545;4626.221;-432
2023-09-26T10:29:07.810;599616031482950118;4633.919;-417
2023-09-26T10:29:07.818;599616031490647691;4641.616;-408
2023-09-26T10:29:07.826;599616031498345264;4649.314;-400
2023-09-26T10:29:07.834;599616031506042837;4657.0117;-395
2023-09-26T10:29:07.841;599616031513740410;4664.709;-393
2023-09-26T10:29:07.849;599616031521437983;4672.4067;-386
2023-09-26T10:29:07.857;599616031529135556;4680.1045;-376
2023-09-26T10:29:07.864;599616031536833129;4687.802;-383
2023-09-26T10:29:07.872;599616031544530702;4695.499;-388
2023-09-26T10:29:07.880;599616031552228275;4703.1973;-347
2023-09-26T10:29:07.887;599616031559925848;4710.8945;-272
2023-09-26T10:29:07.895;599616031567623421;4718.592;-344
2023-09-26T10:29:07.903;599616031575320994;4726.29;-653
2023-09-26T10:29:07.910;599616031583018567;4733.9873;-893
2023-09-26T10:29:07.918;599616031590716140;4741.6846;-731
2023-09-26T10:29:07.926;599616031598413713;4749.383;-374
2023-09-26T10:29:07.934;599616031606111286;4757.08;-267
2023-09-26T10:29:07.941;599616031613808859;4764.7773;-342
2023-09-26T10:29:07.949;599616031621506432;4772.4756;-313
2023-09-26T10:29:07.957;599616031629204005;4780.173;-264
2023-09-26T10:29:07.964;599616031636901578;4787.87;-286
2023-09-26T10:29:07.972;599616031644599151;4795.5684;-289
2023-09-26T10:29:07.980;599616031652296724;4803.2656;-274
2023-09-26T10:29:07.987;599616031659994297;4810.963;-281
2023-09-26T10:29:07.995;599616031667691870;4818.66;-303
2023-09-26T10:29:08.003;599616031675389443;4826.3584;-327
2023-09-26T10:29:08.011;599616031683087016;4834.0557;-320
2023-09-26T10:29:08.018;599616031690784589;4841.753;-301
2023-09-26T10:29:08.026;599616031698482162;4849.451;-310
2023-09-26T10:29:08.034;599616031706179735;4857.1484;-332
2023-09-26T10:29:08.041;599616031713877308;4864.8457;-342
2023-09-26T10:29:08.049;599616031721574881;4872.544;-354
2023-09-26T10:29:08.057;599616031729272454;4880.241;-359
2023-09-26T10:29:08.064;599616031736970027;4887.9385;-354
2023-09-26T10:29:08.072;599616031744667600;4895.6367;-364
2023-09-26T10:29:08.080;599616031752365173;4903.334;-381
2023-09-26T10:29:08.088;599616031760062746;4911.0312;-388
2023-09-26T10:29:08.095;599616031767760319;4918.729;-398
2023-09-26T10:29:08.103;599616031775457892;4926.427;-403
2023-09-26T10:29:08.111;599616031783155465;4934.124;-386
2023-09-26T10:29:08.118;599616031790853038;4941.822;-378
2023-09-26T10:29:08.126;599616031798550611;4949.5195;-400
2023-09-26T10:29:08.134;599616031806248184;4957.217;-417
2023-09-26T10:29:08.141;599616031813945757;4964.9146;-425
2023-09-26T10:29:08.149;599616031821643330;4972.6123;-432
2023-09-26T10:29:08.157;599616031829340903;4980.3096;-410
2023-09-26T10:29:08.165;599616031837038476;4988.0073;-371
2023-09-26T10:29:08.172;599616031844736049;4995.7046;-344
2023-09-26T10:29:08.180;599616031852433622;5003.4023;-327
2023-09-26T10:29:08.188;599616031860131195;5011.1;-306
2023-09-26T10:29:08.195;599616031867828768;5018.7974;-289
2023-09-26T10:29:08.203;599616031875526341;5026.495;-291
2023-09-26T10:29:08.211;599616031883223914;5034.1924;-279
2023-09-26T10:29:08.218;599616031890921487;5041.89;-250
2023-09-26T10:29:08.226;599616031898619060;5049.588;-245
2023-09-26T10:29:08.234;599616031906331698;5057.3003;-264
2023-09-26T10:29:08.241;599616031914029062;5064.998;-269
2023-09-26T10:29:08.249;599616031921726426;5072.6953;-272
2023-09-26T10:29:08.257;599616031929423790;5080.3926;-284
2023-09-26T10:29:08.265;599616031937121154;5088.0903;-269
2023-09-26T10:29:08.272;599616031944818518;5095.787;-252
2023-09-26T10:29:08.280;599616031952515882;5103.4844;-267
2023-09-26T10:29:08.288;599616031960213246;5111.1816;-272
2023-09-26T10:29:08.295;599616031967910610;5118.8794;-255
2023-09-26T10:29:08.303;599616031975607974;5126.5767;-255
2023-09-26T10:29:08.311;599616031983305338;5134.274;-269
2023-09-26T10:29:08.318;599616031991002702;5141.9717;-306
2023-09-26T10:29:08.326;599616031998700066;5149.669;-342
2023-09-26T10:29:08.334;599616032006397430;5157.366;-340
2023-09-26T10:29:08.342;599616032014094794;5165.0635;-342
2023-09-26T10:29:08.349;599616032021792158;5172.761;-359
2023-09-26T10:29:08.357;599616032029489522;5180.4585;-335
2023-09-26T10:29:08.365;599616032037186886;5188.1553;-308
2023-09-26T10:29:08.372;599616032044884250;5195.853;-325
2023-09-26T10:29:08.380;599616032052581614;5203.5503;-327
2023-09-26T10:29:08.388;599616032060278978;5211.2476;-308
2023-09-26T10:29:08.395;599616032067976342;5218.945;-298
2023-09-26T10:29:08.403;599616032075673706;5226.6426;-291
2023-09-26T10:29:08.411;599616032083371070;5234.34;-298
2023-09-26T10:29:08.419;599616032091068434;5242.037;-279
2023-09-26T10:29:08.426;599616032098765798;5249.735;-189
2023-09-26T10:29:08.434;599616032106463162;5257.432;-213
2023-09-26T10:29:08.442;599616032114160526;5265.1294;-510
2023-09-26T10:29:08.449;599616032121857890;5272.826;-833
2023-09-26T10:29:08.457;599616032129555254;5280.524;-770
2023-09-26T10:29:08.465;599616032137252618;5288.221;-381
2023-09-26T10:29:08.472;599616032144949982;5295.9185;-165
2023-09-26T10:29:08.480;599616032152647346;5303.616;-213
2023-09-26T10:29:08.488;599616032160344710;5311.3135;-228
2023-09-26T10:29:08.496;599616032168042074;5319.0107;-208
2023-09-26T10:29:08.503;599616032175739438;5326.708;-235
2023-09-26T10:29:08.511;599616032183436802;5334.406;-235
2023-09-26T10:29:08.519;599616032191134166;5342.103;-213
2023-09-26T10:29:08.526;599616032198831530;5349.8003;-204
2023-09-26T10:29:08.534;599616032206528894;5357.498;-204
2023-09-26T10:29:08.542;599616032214226258;5365.195;-211
2023-09-26T10:29:08.549;599616032221923622;5372.892;-216
2023-09-26T10:29:08.557;599616032229620986;5380.5894;-221
2023-09-26T10:29:08.565;599616032237318350;5388.287;-211
2023-09-26T10:29:08.572;599616032245015714;5395.9844;-196
2023-09-26T10:29:08.580;599616032252713078;5403.6816;-206
2023-09-26T10:29:08.588;599616032260410442;5411.3794;-225
2023-09-26T10:29:08.596;599616032268107806;5419.0767;-230
2023-09-26T10:29:08.603;599616032275805170;5426.774;-223
2023-09-26T10:29:08.611;599616032283502534;5434.471;-218
2023-09-26T10:29:08.619;599616032291199898;5442.169;-233
2023-09-26T10:29:08.626;599616032298897262;5449.866;-240
2023-09-26T10:29:08.634;599616032306594626;5457.563;-238
2023-09-26T10:29:08.642;599616032314291990;5465.2607;-252
2023-09-26T10:29:08.649;599616032321989354;5472.958;-279
2023-09-26T10:29:08.657;599616032329686718;5480.6553;-310
2023-09-26T10:29:08.665;599616032337384082;5488.3525;-323
2023-09-26T10:29:08.673;599616032345081446;5496.0503;-313
2023-09-26T10:29:08.680;599616032352778810;5503.7476;-306
2023-09-26T10:29:08.688;599616032360476174;5511.445;-291
2023-09-26T10:29:08.696;599616032368173538;5519.1426;-279
2023-09-26T10:29:08.703;599616032375870902;5526.84;-267
2023-09-26T10:29:08.711;599616032383568266;5534.537;-230
2023-09-26T10:29:08.719;599616032391265630;5542.234;-204
2023-09-26T10:29:08.726;599616032398962994;5549.9316;-196
2023-09-26T10:29:08.734;599616032406660358;5557.629;-177
2023-09-26T10:29:08.742;599616032414357722;5565.326;-182
2023-09-26T10:29:08.750;599616032422055086;5573.024;-206
2023-09-26T10:29:08.757;599616032429752450;5580.721;-189
2023-09-26T10:29:08.765;599616032437449814;5588.4185;-167
2023-09-26T10:29:08.773;599616032445147178;5596.116;-184
2023-09-26T10:29:08.780;599616032452844542;5603.8135;-191
2023-09-26T10:29:08.788;599616032460541906;5611.5107;-179
2023-09-26T10:29:08.796;599616032468239286;5619.208;-162
2023-09-26T10:29:08.803;599616032475936650;5626.906;-153
2023-09-26T10:29:08.811;599616032483634014;5634.6025;-172
2023-09-26T10:29:08.819;599616032491331378;5642.3;-199
2023-09-26T10:29:08.826;599616032499028742;5649.997;-204
2023-09-26T10:29:08.834;599616032506726106;5657.695;-184
2023-09-26T10:29:08.842;599616032514423470;5665.392;-170
2023-09-26T10:29:08.850;599616032522120834;5673.0894;-170
2023-09-26T10:29:08.857;599616032529818198;5680.787;-208
2023-09-26T10:29:08.865;599616032537515562;5688.4844;-264
2023-09-26T10:29:08.873;599616032545212926;5696.1816;-276
2023-09-26T10:29:08.880;599616032552910290;5703.8794;-264
2023-09-26T10:29:08.888;599616032560607654;5711.5767;-281
2023-09-26T10:29:08.896;599616032568305018;5719.274;-301
2023-09-26T10:29:08.903;599616032576002382;5726.9707;-276
2023-09-26T10:29:08.911;599616032583699746;5734.6685;-245
2023-09-26T10:29:08.919;599616032591397110;5742.3657;-255
2023-09-26T10:29:08.927;599616032599094474;5750.063;-274
2023-09-26T10:29:08.934;599616032606791838;5757.7607;-264
2023-09-26T10:29:08.942;599616032614489202;5765.458;-247
2023-09-26T10:29:08.950;599616032622186566;5773.1553;-247
2023-09-26T10:29:08.957;599616032629883930;5780.8525;-242
2023-09-26T10:29:08.965;599616032637581294;5788.5503;-206
2023-09-26T10:29:08.973;599616032645278658;5796.2476;-145
2023-09-26T10:29:08.980;599616032652976022;5803.945;-191
2023-09-26T10:29:08.988;599616032660673386;5811.642;-485
2023-09-26T10:29:08.996;599616032668370750;5819.3394;-821
2023-09-26T10:29:09.004;599616032676068114;5827.0366;-770
2023-09-26T10:29:09.011;599616032683765478;5834.734;-376
2023-09-26T10:29:09.019;599616032691462842;5842.4316;-138
2023-09-26T10:29:09.027;599616032699160206;5850.129;-179
2023-09-26T10:29:09.034;599616032706857570;5857.826;-196
2023-09-26T10:29:09.042;599616032714554934;5865.524;-143
2023-09-26T10:29:09.050;599616032722252298;5873.221;-143
2023-09-26T10:29:09.057;599616032729949662;5880.9185;-157
2023-09-26T10:29:09.065;599616032737647026;5888.6157;-150
2023-09-26T10:29:09.073;599616032745344390;5896.3135;-150
2023-09-26T10:29:09.081;599616032753041754;5904.0103;-153
2023-09-26T10:29:09.088;599616032760739118;5911.7075;-148
2023-09-26T10:29:09.096;599616032768436482;5919.4053;-153
2023-09-26T10:29:09.104;599616032776133846;5927.1025;-160
2023-09-26T10:29:09.111;599616032783831210;5934.8;-162
2023-09-26T10:29:09.119;599616032791528574;5942.497;-160
2023-09-26T10:29:09.127;599616032799225938;5950.195;-160
2023-09-26T10:29:09.134;599616032806923302;5957.892;-160
2023-09-26T10:29:09.142;599616032814620666;5965.5894;-153
2023-09-26T10:29:09.150;599616032822318030;5973.287;-160
2023-09-26T10:29:09.157;599616032830015394;5980.9844;-201
2023-09-26T10:29:09.165;599616032837712758;5988.6816;-238
2023-09-26T10:29:09.173;599616032845410122;5996.3784;-242
2023-09-26T10:29:09.181;599616032853107486;6004.076;-240
2023-09-26T10:29:09.188;599616032860804850;6011.7734;-242
2023-09-26T10:29:09.196;599616032868502214;6019.4707;-245
2023-09-26T10:29:09.204;599616032876199578;6027.1685;-247
2023-09-26T10:29:09.211;599616032883896942;6034.8657;-250
2023-09-26T10:29:09.219;599616032891594306;6042.563;-247
2023-09-26T10:29:09.227;599616032899291670;6050.2603;-250
2023-09-26T10:29:09.234;599616032906989034;6057.958;-267
2023-09-26T10:29:09.242;599616032914686398;6065.6553;-262
2023-09-26T10:29:09.250;599616032922383762;6073.3525;-218
2023-09-26T10:29:09.258;599616032930081126;6081.05;-187
2023-09-26T10:29:09.265;599616032937778490;6088.747;-179
2023-09-26T10:29:09.273;599616032945475854;6096.4443;-153
2023-09-26T10:29:09.281;599616032953173218;6104.1416;-131
2023-09-26T10:29:09.288;599616032960870582;6111.8394;-131
2023-09-26T10:29:09.296;599616032968567946;6119.5366;-128
2023-09-26T10:29:09.304;599616032976265310;6127.234;-131
2023-09-26T10:29:09.311;599616032983962674;6134.9316;-138
2023-09-26T10:29:09.319;599616032991660038;6142.629;-136
2023-09-26T10:29:09.327;599616032999357402;6150.326;-126
2023-09-26T10:29:09.335;599616033007054766;6158.0234;-126
2023-09-26T10:29:09.342;599616033014752130;6165.721;-128
2023-09-26T10:29:09.350;599616033022449494;6173.418;-131
2023-09-26T10:29:09.358;599616033030151914;6181.1206;-140
2023-09-26T10:29:09.365;599616033037849208;6188.818;-148
2023-09-26T10:29:09.373;599616033045546502;6196.515;-143
2023-09-26T10:29:09.381;599616033053243796;6204.213;-140
2023-09-26T10:29:09.388;599616033060941090;6211.9097;-153
2023-09-26T10:29:09.396;599616033068638384;6219.607;-170
2023-09-26T10:29:09.404;599616033076335678;6227.3047;-191
2023-09-26T10:29:09.412;599616033084032972;6235.002;-208
2023-09-26T10:29:09.419;599616033091730266;6242.6987;-223
2023-09-26T10:29:09.427;599616033099427560;6250.396;-247
2023-09-26T10:29:09.435;599616033107124854;6258.0938;-264
2023-09-26T10:29:09.442;599616033114822148;6265.791;-269
2023-09-26T10:29:09.450;599616033122519442;6273.4883;-269
2023-09-26T10:29:09.458;599616033130216736;6281.185;-247
2023-09-26T10:29:09.465;599616033137914030;6288.883;-221
2023-09-26T10:29:09.473;599616033145611324;6296.58;-228
2023-09-26T10:29:09.481;599616033153308618;6304.2773;-250
2023-09-26T10:29:09.488;599616033161005912;6311.9746;-250
2023-09-26T10:29:09.496;599616033168703206;6319.672;-242
2023-09-26T10:29:09.504;599616033176400500;6327.369;-238
2023-09-26T10:29:09.512;599616033184097794;6335.0664;-218
2023-09-26T10:29:09.519;599616033191795088;6342.764;-174
2023-09-26T10:29:09.527;599616033199492382;6350.461;-131
2023-09-26T10:29:09.535;599616033207189676;6358.158;-184
2023-09-26T10:29:09.542;599616033214886970;6365.856;-454
2023-09-26T10:29:09.550;599616033222584264;6373.553;-789
2023-09-26T10:29:09.558;599616033230281558;6381.25;-791
2023-09-26T10:29:09.565;599616033237978852;6388.9473;-383
2023-09-26T10:29:09.573;599616033245676146;6396.645;-72
2023-09-26T10:29:09.581;599616033253373440;6404.3423;-121
2023-09-26T10:29:09.589;599616033261070734;6412.0396;-174
2023-09-26T10:29:09.596;599616033268768028;6419.737;-102
2023-09-26T10:29:09.604;599616033276465322;6427.434;-92
2023-09-26T10:29:09.612;599616033284162616;6435.1313;-121
2023-09-26T10:29:09.619;599616033291859910;6442.8286;-119
2023-09-26T10:29:09.627;599616033299557204;6450.526;-128
2023-09-26T10:29:09.635;599616033307254498;6458.223;-140
2023-09-26T10:29:09.642;599616033314951792;6465.9204;-131
2023-09-26T10:29:09.650;599616033322649086;6473.618;-123
2023-09-26T10:29:09.658;599616033330346380;6481.3154;-138
2023-09-26T10:29:09.666;599616033338043674;6489.012;-172
2023-09-26T10:29:09.673;599616033345740968;6496.7095;-182
2023-09-26T10:29:09.681;599616033353438262;6504.407;-165
2023-09-26T10:29:09.689;599616033361135556;6512.1045;-157
2023-09-26T10:29:09.696;599616033368832850;6519.8013;-165
2023-09-26T10:29:09.704;599616033376530144;6527.4985;-167
2023-09-26T10:29:09.712;599616033384227438;6535.1963;-174
2023-09-26T10:29:09.719;599616033391924732;6542.8936;-194
2023-09-26T10:29:09.727;599616033399622026;6550.591;-211
2023-09-26T10:29:09.735;599616033407319320;6558.288;-206
2023-09-26T10:29:09.742;599616033415016614;6565.9854;-206
2023-09-26T10:29:09.750;599616033422713908;6573.6826;-228
2023-09-26T10:29:09.758;599616033430411202;6581.38;-250
2023-09-26T10:29:09.766;599616033438108496;6589.077;-247
2023-09-26T10:29:09.773;599616033445805790;6596.7744;-238
2023-09-26T10:29:09.781;599616033453503084;6604.4717;-238
2023-09-26T10:29:09.789;599616033461200378;6612.1694;-233
2023-09-26T10:29:09.796;599616033468897672;6619.8667;-216
2023-09-26T10:29:09.804;599616033476594966;6627.5635;-191
2023-09-26T10:29:09.812;599616033484292260;6635.2607;-167
2023-09-26T10:29:09.819;599616033491989554;6642.9585;-143
2023-09-26T10:29:09.827;599616033499686848;6650.656;-121
2023-09-26T10:29:09.835;599616033507384142;6658.3525;-104
2023-09-26T10:29:09.843;599616033515081436;6666.05;-92
2023-09-26T10:29:09.850;599616033522778730;6673.7476;-102
2023-09-26T10:29:09.858;599616033530476024;6681.445;-114
2023-09-26T10:29:09.866;599616033538173318;6689.142;-94
2023-09-26T10:29:09.873;599616033545870612;6696.8394;-77
2023-09-26T10:29:09.881;599616033553567906;6704.5366;-87
2023-09-26T10:29:09.889;599616033561265200;6712.234;-97
2023-09-26T10:29:09.896;599616033568962494;6719.931;-97
2023-09-26T10:29:09.904;599616033576659788;6727.6284;-89
2023-09-26T10:29:09.912;599616033584357082;6735.3257;-92
2023-09-26T10:29:09.920;599616033592044412;6743.013;-97
2023-09-26T10:29:09.927;599616033599741845;6750.711;-89
2023-09-26T10:29:09.935;599616033607439278;6758.408;-102
2023-09-26T10:29:09.943;599616033615136711;6766.1055;-148
2023-09-26T10:29:09.950;599616033622834144;6773.803;-167
2023-09-26T10:29:09.958;599616033630531577;6781.5005;-150
2023-09-26T10:29:09.966;599616033638229010;6789.1978;-153
2023-09-26T10:29:09.973;599616033645926443;6796.895;-172
2023-09-26T10:29:09.981;599616033653623876;6804.593;-174
2023-09-26T10:29:09.989;599616033661321309;6812.29;-182
2023-09-26T10:29:09.996;599616033669018742;6819.9873;-201
2023-09-26T10:29:10.004;599616033676716175;6827.685;-206
2023-09-26T10:29:10.012;599616033684413608;6835.3823;-201
2023-09-26T10:29:10.020;599616033692111041;6843.0796;-204
2023-09-26T10:29:10.027;599616033699808474;6850.777;-206
2023-09-26T10:29:10.035;599616033707505907;6858.4746;-187
2023-09-26T10:29:10.043;599616033715203340;6866.172;-167
2023-09-26T10:29:10.050;599616033722900773;6873.869;-167
2023-09-26T10:29:10.058;599616033730598206;6881.567;-162
2023-09-26T10:29:10.066;599616033738295639;6889.264;-153
2023-09-26T10:29:10.073;599616033745993072;6896.962;-155
2023-09-26T10:29:10.081;599616033753690505;6904.6597;-157
2023-09-26T10:29:10.089;599616033761387938;6912.357;-143
2023-09-26T10:29:10.097;599616033769085371;6920.054;-106
2023-09-26T10:29:10.104;599616033776782804;6927.7515;-48
2023-09-26T10:29:10.112;599616033784480237;6935.449;-109
2023-09-26T10:29:10.120;599616033792177670;6943.1465;-425
2023-09-26T10:29:10.127;599616033799875103;6950.8438;-765
2023-09-26T10:29:10.135;599616033807572536;6958.5415;-692
2023-09-26T10:29:10.143;599616033815269969;6966.239;-245
2023-09-26T10:29:10.150;599616033822967402;6973.936;9
2023-09-26T10:29:10.158;599616033830664835;6981.6333;-75
2023-09-26T10:29:10.166;599616033838362268;6989.331;-126
2023-09-26T10:29:10.174;599616033846059701;6997.0283;-85
2023-09-26T10:29:10.181;599616033853757134;7004.7256;-87
2023-09-26T10:29:10.189;599616033861454567;7012.4233;-94
2023-09-26T10:29:10.197;599616033869152000;7020.1206;-85
2023-09-26T10:29:10.204;599616033876849433;7027.818;-85
2023-09-26T10:29:10.212;599616033884546866;7035.5156;-97
2023-09-26T10:29:10.220;599616033892244299;7043.213;-114
2023-09-26T10:29:10.227;599616033899941732;7050.91;-114
2023-09-26T10:29:10.235;599616033907639165;7058.608;-106
2023-09-26T10:29:10.243;599616033915336598;7066.3057;-104
2023-09-26T10:29:10.251;599616033923034031;7074.003;-106
2023-09-26T10:29:10.258;599616033930731464;7081.7;-109
2023-09-26T10:29:10.266;599616033938428897;7089.398;-114
2023-09-26T10:29:10.274;599616033946126330;7097.095;-116
2023-09-26T10:29:10.281;599616033953823763;7104.7925;-111
2023-09-26T10:29:10.289;599616033961521196;7112.4897;-109
2023-09-26T10:29:10.297;599616033969218629;7120.1875;-126
2023-09-26T10:29:10.304;599616033976916062;7127.885;-140
2023-09-26T10:29:10.312;599616033984613495;7135.582;-143
2023-09-26T10:29:10.320;599616033992310928;7143.28;-145
2023-09-26T10:29:10.327;599616034000008361;7150.977;-150
2023-09-26T10:29:10.335;599616034007705794;7158.6743;-155
2023-09-26T10:29:10.343;599616034015403227;7166.372;-170
2023-09-26T10:29:10.351;599616034023100660;7174.0693;-189
2023-09-26T10:29:10.358;599616034030798093;7181.7666;-194
2023-09-26T10:29:10.366;599616034038495526;7189.464;-174
2023-09-26T10:29:10.374;599616034046192959;7197.1616;-148
2023-09-26T10:29:10.381;599616034053890392;7204.859;-128
2023-09-26T10:29:10.389;599616034061587825;7212.5566;-114
2023-09-26T10:29:10.397;599616034069285258;7220.2544;-97
2023-09-26T10:29:10.404;599616034076982691;7227.9517;-82
2023-09-26T10:29:10.412;599616034084680124;7235.649;-68
2023-09-26T10:29:10.420;599616034092377557;7243.346;-51
2023-09-26T10:29:10.428;599616034100074990;7251.044;-51
2023-09-26T10:29:10.435;599616034107772423;7258.741;-60
2023-09-26T10:29:10.443;599616034115469856;7266.4385;-55
2023-09-26T10:29:10.451;599616034123167289;7274.136;-48
2023-09-26T10:29:10.458;599616034130864722;7281.8335;-53
2023-09-26T10:29:10.466;599616034138562155;7289.531;-68
2023-09-26T10:29:10.474;599616034146259588;7297.2285;-77
2023-09-26T10:29:10.481;599616034153962054;7304.9307;-77
2023-09-26T10:29:10.489;599616034161659418;7312.6284;-87
2023-09-26T10:29:10.497;599616034169356782;7320.3257;-94
2023-09-26T10:29:10.505;599616034177054146;7328.023;-89
2023-09-26T10:29:10.512;599616034184751510;7335.72;-87
2023-09-26T10:29:10.520;599616034192448874;7343.4175;-106
2023-09-26T10:29:10.528;599616034200146238;7351.1147;-121
2023-09-26T10:29:10.535;599616034207843602;7358.812;-126
2023-09-26T10:29:10.543;599616034215540966;7366.51;-143
2023-09-26T10:29:10.551;599616034223238330;7374.207;-140
2023-09-26T10:29:10.558;599616034230935694;7381.9043;-119
2023-09-26T10:29:10.566;599616034238633058;7389.6016;-116
2023-09-26T10:29:10.574;599616034246330422;7397.2993;-133
2023-09-26T10:29:10.581;599616034254027786;7404.9966;-153
2023-09-26T10:29:10.589;599616034261725150;7412.694;-167
2023-09-26T10:29:10.597;599616034269422514;7420.3916;-174
2023-09-26T10:29:10.605;599616034277119878;7428.089;-174
2023-09-26T10:29:10.612;599616034284817242;7435.7856;-182
2023-09-26T10:29:10.620;599616034292514606;7443.483;-187
2023-09-26T10:29:10.628;599616034300211970;7451.1807;-170
2023-09-26T10:29:10.635;599616034307909334;7458.878;-160
2023-09-26T10:29:10.643;599616034315606698;7466.575;-157
2023-09-26T10:29:10.651;599616034323304062;7474.273;-148
2023-09-26T10:29:10.658;599616034331001426;7481.97;-143
2023-09-26T10:29:10.666;599616034338698790;7489.6675;-153
2023-09-26T10:29:10.674;599616034346396154;7497.365;-174
2023-09-26T10:29:10.682;599616034354093518;7505.0625;-165
2023-09-26T10:29:10.689;599616034361790882;7512.76;-106
2023-09-26T10:29:10.697;599616034369488246;7520.457;-182
2023-09-26T10:29:10.705;599616034377185610;7528.1543;-505
2023-09-26T10:29:10.712;599616034384882974;7535.8516;-779
2023-09-26T10:29:10.720;599616034392580338;7543.549;-619
2023-09-26T10:29:10.728;599616034400277702;7551.246;-194
2023-09-26T10:29:10.735;599616034407975066;7558.944;-38
2023-09-26T10:29:10.743;599616034415672430;7566.641;-133
2023-09-26T10:29:10.751;599616034423369794;7574.3384;-121
2023-09-26T10:29:10.759;599616034431067158;7582.036;-65
2023-09-26T10:29:10.766;599616034438764522;7589.7334;-94
2023-09-26T10:29:10.774;599616034446461886;7597.4307;-109
2023-09-26T10:29:10.782;599616034454159250;7605.1284;-82
2023-09-26T10:29:10.789;599616034461856614;7612.825;-87
2023-09-26T10:29:10.797;599616034469553978;7620.5225;-106
2023-09-26T10:29:10.805;599616034477251342;7628.2197;-99
2023-09-26T10:29:10.812;599616034484948706;7635.9175;-94
2023-09-26T10:29:10.820;599616034492646070;7643.6147;-94
2023-09-26T10:29:10.828;599616034500343434;7651.312;-89
2023-09-26T10:29:10.836;599616034508040798;7659.01;-97
2023-09-26T10:29:10.843;599616034515738162;7666.707;-109
2023-09-26T10:29:10.851;599616034523435526;7674.4043;-104
2023-09-26T10:29:10.859;599616034531132890;7682.1016;-106
2023-09-26T10:29:10.866;599616034538830254;7689.7993;-114
2023-09-26T10:29:10.874;599616034546527618;7697.4966;-116
2023-09-26T10:29:10.882;599616034554224982;7705.1934;-119
2023-09-26T10:29:10.889;599616034561922346;7712.891;-126
2023-09-26T10:29:10.897;599616034569619710;7720.5884;-128
2023-09-26T10:29:10.905;599616034577317074;7728.2856;-140
2023-09-26T10:29:10.912;599616034585014438;7735.983;-160
2023-09-26T10:29:10.920;599616034592711802;7743.6807;-165
2023-09-26T10:29:10.928;599616034600409166;7751.378;-170
2023-09-26T10:29:10.936;599616034608106530;7759.075;-187
2023-09-26T10:29:10.943;599616034615803894;7766.773;-184
2023-09-26T10:29:10.951;599616034623501258;7774.47;-179
2023-09-26T10:29:10.959;599616034631198622;7782.1675;-184
2023-09-26T10:29:10.966;599616034638895986;7789.8647;-167
2023-09-26T10:29:10.974;599616034646593350;7797.562;-133
2023-09-26T10:29:10.982;599616034654290714;7805.2593;-116
2023-09-26T10:29:10.989;599616034661988078;7812.9565;-104
2023-09-26T10:29:10.997;599616034669685442;7820.6543;-87
2023-09-26T10:29:11.005;599616034677382806;7828.3516;-82
2023-09-26T10:29:11.013;599616034685080170;7836.049;-92
2023-09-26T10:29:11.020;599616034692777534;7843.746;-92
2023-09-26T10:29:11.028;599616034700474898;7851.444;-94
2023-09-26T10:29:11.036;599616034708172262;7859.141;-92
2023-09-26T10:29:11.043;599616034715869642;7866.8384;-82
2023-09-26T10:29:11.051;599616034723567006;7874.536;-92
2023-09-26T10:29:11.059;599616034731264370;7882.2334;-111
2023-09-26T10:29:11.066;599616034738961734;7889.93;-121
2023-09-26T10:29:11.074;599616034746659098;7897.6274;-116
2023-09-26T10:29:11.082;599616034754356462;7905.325;-116
2023-09-26T10:29:11.090;599616034762053826;7913.0225;-136
2023-09-26T10:29:11.097;599616034769751190;7920.7197;-150
2023-09-26T10:29:11.105;599616034777448554;7928.4175;-170
2023-09-26T10:29:11.113;599616034785145918;7936.1147;-211
2023-09-26T10:29:11.120;599616034792843282;7943.812;-223
2023-09-26T10:29:11.128;599616034800540646;7951.5093;-201
2023-09-26T10:29:11.136;599616034808238010;7959.207;-199
2023-09-26T10:29:11.143;599616034815935374;7966.9043;-204
2023-09-26T10:29:11.151;599616034823632738;7974.601;-199
2023-09-26T10:29:11.159;599616034831330102;7982.299;-191
2023-09-26T10:29:11.166;599616034839027466;7989.996;-196
2023-09-26T10:29:11.174;599616034846724830;7997.6934;-233
2023-09-26T10:29:11.182;599616034854422194;8005.3906;-284
2023-09-26T10:29:11.190;599616034862119558;8013.0884;-293
2023-09-26T10:29:11.197;599616034869816922;8020.7856;-279
2023-09-26T10:29:11.205;599616034877514286;8028.483;-276
2023-09-26T10:29:11.213;599616034885211650;8036.1807;-262
2023-09-26T10:29:11.220;599616034892909014;8043.878;-235
2023-09-26T10:29:11.228;599616034900606378;8051.575;-235
2023-09-26T10:29:11.236;599616034908303742;8059.2725;-240
2023-09-26T10:29:11.243;599616034916001106;8066.9697;-230
2023-09-26T10:29:11.251;599616034923698470;8074.667;-225
2023-09-26T10:29:11.259;599616034931395834;8082.3643;-221
2023-09-26T10:29:11.267;599616034939093198;8090.062;-201
2023-09-26T10:29:11.274;599616034946790562;8097.7593;-162
2023-09-26T10:29:11.282;599616034954487926;8105.4565;-128
2023-09-26T10:29:11.290;599616034962185290;8113.154;-235
2023-09-26T10:29:11.297;599616034969882654;8120.8516;-531
2023-09-26T10:29:11.305;599616034977580018;8128.549;-733
2023-09-26T10:29:11.313;599616034985277382;8136.246;-544
2023-09-26T10:29:11.320;599616034992974746;8143.944;-182
2023-09-26T10:29:11.328;599616035000672110;8151.641;-97
2023-09-26T10:29:11.336;599616035008369474;8159.338;-191
2023-09-26T10:29:11.344;599616035016066838;8167.035;-174
2023-09-26T10:29:11.351;599616035023764202;8174.733;-116
2023-09-26T10:29:11.359;599616035031461566;8182.43;-131
2023-09-26T10:29:11.367;599616035039158930;8190.1274;-153
2023-09-26T10:29:11.374;599616035046856294;8197.825;-157
2023-09-26T10:29:11.382;599616035054553658;8205.522;-172
2023-09-26T10:29:11.390;599616035062251022;8213.22;-172
2023-09-26T10:29:11.397;599616035069948386;8220.917;-150
2023-09-26T10:29:11.405;599616035077645750;8228.614;-145
2023-09-26T10:29:11.413;599616035085343114;8236.3125;-167
2023-09-26T10:29:11.421;599616035093040478;8244.009;-182
2023-09-26T10:29:11.428;599616035100737842;8251.706;-177
2023-09-26T10:29:11.436;599616035108435206;8259.403;-184
2023-09-26T10:29:11.444;599616035116132570;8267.102;-199
2023-09-26T10:29:11.451;599616035123829934;8274.799;-201
2023-09-26T10:29:11.459;599616035131527298;8282.496;-211
2023-09-26T10:29:11.467;599616035139224662;8290.193;-233
2023-09-26T10:29:11.474;599616035146922026;8297.891;-240
2023-09-26T10:29:11.482;599616035154619390;8305.588;-242
2023-09-26T10:29:11.490;599616035162316754;8313.285;-245
2023-09-26T10:29:11.497;599616035170014118;8320.983;-245
2023-09-26T10:29:11.505;599616035177711482;8328.681;-238
2023-09-26T10:29:11.513;599616035185408846;8336.377;-247
2023-09-26T10:29:11.521;599616035193106210;8344.075;-272
2023-09-26T10:29:11.528;599616035200803574;8351.772;-281
2023-09-26T10:29:11.536;599616035208500938;8359.47;-274
2023-09-26T10:29:11.544;599616035216198302;8367.167;-269
2023-09-26T10:29:11.551;599616035223895666;8374.864;-267
2023-09-26T10:29:11.559;599616035231593030;8382.562;-250
2023-09-26T10:29:11.567;599616035239290394;8390.259;-225
2023-09-26T10:29:11.574;599616035246987758;8397.957;-208
2023-09-26T10:29:11.582;599616035254685122;8405.654;-177
2023-09-26T10:29:11.590;599616035262382486;8413.352;-157
2023-09-26T10:29:11.598;599616035270079850;8421.048;-179
2023-09-26T10:29:11.605;599616035277777230;8428.746;-199
2023-09-26T10:29:11.613;599616035285474594;8436.443;-201
2023-09-26T10:29:11.621;599616035293171958;8444.141;-206
2023-09-26T10:29:11.628;599616035300869322;8451.838;-191
2023-09-26T10:29:11.636;599616035308566686;8459.535;-184
2023-09-26T10:29:11.644;599616035316264050;8467.232;-218
2023-09-26T10:29:11.651;599616035323961414;8474.931;-267
2023-09-26T10:29:11.659;599616035331658778;8482.628;-284
2023-09-26T10:29:11.667;599616035339356142;8490.325;-274
2023-09-26T10:29:11.675;599616035347053506;8498.022;-272
2023-09-26T10:29:11.682;599616035354750870;8505.72;-293
2023-09-26T10:29:11.690;599616035362448234;8513.417;-330
2023-09-26T10:29:11.698;599616035370145598;8521.114;-357
2023-09-26T10:29:11.705;599616035377842962;8528.812;-357
2023-09-26T10:29:11.713;599616035385540326;8536.509;-337
2023-09-26T10:29:11.721;599616035393237690;8544.206;-325
2023-09-26T10:29:11.728;599616035400935054;8551.903;-313
2023-09-26T10:29:11.736;599616035408632418;8559.602;-296
2023-09-26T10:29:11.744;599616035416329782;8567.299;-293
2023-09-26T10:29:11.751;599616035424027146;8574.996;-296
2023-09-26T10:29:11.759;599616035431724510;8582.693;-306
2023-09-26T10:29:11.767;599616035439421874;8590.391;-320
2023-09-26T10:29:11.775;599616035447119238;8598.088;-320
2023-09-26T10:29:11.782;599616035454816602;8605.785;-325
2023-09-26T10:29:11.790;599616035462513966;8613.482;-340
2023-09-26T10:29:11.798;599616035470211330;8621.18;-323
2023-09-26T10:29:11.805;599616035477908694;8628.877;-281
2023-09-26T10:29:11.813;599616035485606058;8636.575;-269
2023-09-26T10:29:11.821;599616035493303422;8644.272;-276
2023-09-26T10:29:11.828;599616035501000786;8651.97;-284
2023-09-26T10:29:11.836;599616035508698150;8659.667;-286
2023-09-26T10:29:11.844;599616035516395514;8667.364;-281
2023-09-26T10:29:11.852;599616035524092878;8675.062;-276
2023-09-26T10:29:11.859;599616035531790242;8682.759;-250
2023-09-26T10:29:11.867;599616035539487606;8690.457;-172
2023-09-26T10:29:11.875;599616035547184970;8698.154;-165
2023-09-26T10:29:11.882;599616035554882334;8705.852;-398
2023-09-26T10:29:11.890;599616035562579698;8713.549;-726
2023-09-26T10:29:11.898;599616035570277062;8721.246;-753
2023-09-26T10:29:11.905;599616035577974426;8728.943;-422
2023-09-26T10:29:11.913;599616035585671790;8736.641;-157
2023-09-26T10:29:11.921;599616035593369154;8744.338;-182
2023-09-26T10:29:11.929;599616035601066518;8752.035;-235
2023-09-26T10:29:11.936;599616035608763882;8759.732;-199
2023-09-26T10:29:11.944;599616035616461246;8767.43;-196
2023-09-26T10:29:11.952;599616035624158610;8775.127;-223
2023-09-26T10:29:11.959;599616035631855974;8782.824;-228
2023-09-26T10:29:11.967;599616035639553338;8790.521;-218
2023-09-26T10:29:11.975;599616035647250702;8798.22;-228
2023-09-26T10:29:11.982;599616035654948066;8805.917;-233
2023-09-26T10:29:11.990;599616035662645430;8813.614;-208
2023-09-26T10:29:11.998;599616035670342794;8821.312;-199
2023-09-26T10:29:12.006;599616035678040158;8829.009;-228
2023-09-26T10:29:12.013;599616035685737522;8836.706;-238
2023-09-26T10:29:12.021;599616035693434886;8844.403;-221
2023-09-26T10:29:12.029;599616035701132250;8852.102;-233
2023-09-26T10:29:12.036;599616035708829614;8859.799;-255
2023-09-26T10:29:12.044;599616035716526978;8867.496;-225
2023-09-26T10:29:12.052;599616035724224342;8875.193;-218
2023-09-26T10:29:12.059;599616035731921706;8882.891;-264
2023-09-26T10:29:12.067;599616035739619070;8890.588;-274
2023-09-26T10:29:12.075;599616035747316434;8898.285;-252
2023-09-26T10:29:12.082;599616035755013798;8905.983;-267
2023-09-26T10:29:12.090;599616035762711162;8913.681;-289
2023-09-26T10:29:12.098;599616035770408526;8921.377;-291
2023-09-26T10:29:12.106;599616035778105890;8929.074;-306
2023-09-26T10:29:12.113;599616035785803254;8936.771;-313
2023-09-26T10:29:12.121;599616035793500618;8944.469;-298
2023-09-26T10:29:12.129;599616035801197982;8952.166;-291
2023-09-26T10:29:12.136;599616035808895346;8959.864;-276
2023-09-26T10:29:12.144;599616035816592710;8967.562;-259
2023-09-26T10:29:12.152;599616035824290074;8975.259;-255
2023-09-26T10:29:12.159;599616035831987438;8982.956;-235
2023-09-26T10:29:12.167;599616035839714914;8990.684;-213
2023-09-26T10:29:12.175;599616035847411860;8998.381;-206
2023-09-26T10:29:12.183;599616035855108806;9006.078;-216
2023-09-26T10:29:12.190;599616035862805752;9013.774;-245
2023-09-26T10:29:12.198;599616035870502698;9021.472;-257
2023-09-26T10:29:12.206;599616035878199644;9029.168;-247
2023-09-26T10:29:12.213;599616035885896590;9036.865;-264
2023-09-26T10:29:12.221;599616035893593536;9044.562;-289
2023-09-26T10:29:12.229;599616035901290482;9052.26;-301
2023-09-26T10:29:12.236;599616035908987428;9059.956;-320
2023-09-26T10:29:12.244;599616035916684374;9067.653;-318
2023-09-26T10:29:12.252;599616035924381320;9075.351;-306
2023-09-26T10:29:12.260;599616035932078266;9083.047;-308
2023-09-26T10:29:12.267;599616035939775212;9090.744;-303
2023-09-26T10:29:12.275;599616035947472158;9098.44;-306
2023-09-26T10:29:12.283;599616035955169104;9106.138;-303
2023-09-26T10:29:12.290;599616035962866050;9113.835;-291
2023-09-26T10:29:12.298;599616035970562996;9121.532;-315
2023-09-26T10:29:12.306;599616035978259942;9129.229;-313
2023-09-26T10:29:12.313;599616035985956888;9136.926;-257
2023-09-26T10:29:12.321;599616035993653834;9144.622;-235
2023-09-26T10:29:12.329;599616036001350780;9152.319;-259
2023-09-26T10:29:12.337;599616036009047726;9160.017;-284
2023-09-26T10:29:12.344;599616036016744672;9167.713;-301
2023-09-26T10:29:12.352;599616036024441618;9175.411;-298
2023-09-26T10:29:12.360;599616036032138564;9183.107;-286
2023-09-26T10:29:12.367;599616036039835510;9190.805;-296
2023-09-26T10:29:12.375;599616036047532456;9198.501;-279
2023-09-26T10:29:12.383;599616036055229402;9206.198;-242
2023-09-26T10:29:12.390;599616036062926348;9213.895;-252
2023-09-26T10:29:12.398;599616036070623294;9221.592;-264
2023-09-26T10:29:12.406;599616036078320240;9229.289;-245
2023-09-26T10:29:12.413;599616036086017186;9236.986;-240
2023-09-26T10:29:12.421;599616036093714132;9244.684;-247
2023-09-26T10:29:12.429;599616036101411078;9252.38;-250
2023-09-26T10:29:12.437;599616036109108024;9260.077;-238
2023-09-26T10:29:12.444;599616036116804970;9267.773;-172
2023-09-26T10:29:12.452;599616036124501916;9275.471;-191
2023-09-26T10:29:12.460;599616036132198862;9283.167;-463
2023-09-26T10:29:12.467;599616036139895808;9290.864;-767
2023-09-26T10:29:12.475;599616036147592754;9298.561;-748
2023-09-26T10:29:12.483;599616036155289700;9306.259;-405
2023-09-26T10:29:12.490;599616036162986646;9313.956;-136
2023-09-26T10:29:12.498;599616036170683592;9321.652;-150
2023-09-26T10:29:12.506;599616036178380538;9329.35;-206
2023-09-26T10:29:12.514;599616036186077484;9337.046;-160
2023-09-26T10:29:12.521;599616036193774430;9344.743;-148
2023-09-26T10:29:12.529;599616036201471376;9352.439;-160
2023-09-26T10:29:12.537;599616036209168322;9360.138;-140
2023-09-26T10:29:12.544;599616036216865268;9367.834;-153
2023-09-26T10:29:12.552;599616036224562214;9375.531;-179
2023-09-26T10:29:12.560;599616036232259160;9383.228;-157
2023-09-26T10:29:12.567;599616036239956106;9390.925;-136
2023-09-26T10:29:12.575;599616036247653052;9398.622;-157
2023-09-26T10:29:12.583;599616036255349998;9406.318;-177
2023-09-26T10:29:12.591;599616036263046944;9414.016;-174
2023-09-26T10:29:12.598;599616036270743890;9421.712;-165
2023-09-26T10:29:12.606;599616036278440836;9429.41;-167
2023-09-26T10:29:12.614;599616036286137782;9437.106;-179
2023-09-26T10:29:12.621;599616036293834728;9444.804;-187
2023-09-26T10:29:12.629;599616036301531674;9452.5;-187
2023-09-26T10:29:12.637;599616036309228620;9460.197;-196
2023-09-26T10:29:12.644;599616036316925566;9467.895;-213
2023-09-26T10:29:12.652;599616036324622512;9475.591;-206
2023-09-26T10:29:12.660;599616036332319458;9483.289;-204
2023-09-26T10:29:12.667;599616036340016404;9490.985;-245
2023-09-26T10:29:12.675;599616036347713350;9498.683;-272
2023-09-26T10:29:12.683;599616036355410296;9506.379;-264
2023-09-26T10:29:12.691;599616036363107242;9514.076;-289
2023-09-26T10:29:12.698;599616036370804188;9521.772;-320
2023-09-26T10:29:12.706;599616036378501134;9529.47;-306
2023-09-26T10:29:12.714;599616036386198080;9537.166;-274
2023-09-26T10:29:12.721;599616036393895026;9544.863;-252
2023-09-26T10:29:12.729;599616036401566930;9552.535;-238
2023-09-26T10:29:12.737;599616036409264224;9560.233;-216
2023-09-26T10:29:12.744;599616036416961518;9567.931;-184
2023-09-26T10:29:12.752;599616036424658812;9575.628;-182
2023-09-26T10:29:12.760;599616036432356106;9583.325;-199
2023-09-26T10:29:12.768;599616036440053400;9591.022;-204
2023-09-26T10:29:12.775;599616036447750694;9598.719;-223
2023-09-26T10:29:12.783;599616036455447988;9606.416;-247
2023-09-26T10:29:12.791;599616036463145282;9614.114;-242
2023-09-26T10:29:12.798;599616036470842576;9621.812;-240
2023-09-26T10:29:12.806;599616036478539870;9629.509;-238
2023-09-26T10:29:12.814;599616036486237164;9637.206;-233
2023-09-26T10:29:12.821;599616036493934458;9644.903;-240
2023-09-26T10:29:12.829;599616036501631752;9652.601;-245
2023-09-26T10:29:12.837;599616036509329046;9660.298;-235
2023-09-26T10:29:12.844;599616036517026340;9667.994;-233
2023-09-26T10:29:12.852;599616036524723634;9675.692;-228
2023-09-26T10:29:12.860;599616036532420928;9683.39;-225
2023-09-26T10:29:12.868;599616036540118222;9691.087;-235
2023-09-26T10:29:12.875;599616036547815516;9698.784;-238
2023-09-26T10:29:12.883;599616036555512810;9706.481;-216
2023-09-26T10:29:12.891;599616036563210104;9714.179;-194
2023-09-26T10:29:12.898;599616036570907398;9721.877;-191
2023-09-26T10:29:12.906;599616036578604692;9729.574;-191
2023-09-26T10:29:12.914;599616036586301986;9737.2705;-201
2023-09-26T10:29:12.921;599616036593999280;9744.968;-225
2023-09-26T10:29:12.929;599616036601696574;9752.665;-247
2023-09-26T10:29:12.937;599616036609393868;9760.362;-247
2023-09-26T10:29:12.945;599616036617091162;9768.06;-238
2023-09-26T10:29:12.952;599616036624788456;9775.757;-221
2023-09-26T10:29:12.960;599616036632485750;9783.455;-201
2023-09-26T10:29:12.968;599616036640183044;9791.152;-191
2023-09-26T10:29:12.975;599616036647880338;9798.85;-189
2023-09-26T10:29:12.983;599616036655577632;9806.546;-184
2023-09-26T10:29:12.991;599616036663274926;9814.243;-182
2023-09-26T10:29:12.998;599616036670972220;9821.94;-187
2023-09-26T10:29:13.006;599616036678669514;9829.638;-189
2023-09-26T10:29:13.014;599616036686366808;9837.336;-155
2023-09-26T10:29:13.022;599616036694064102;9845.033;-75
2023-09-26T10:29:13.029;599616036701761396;9852.73;-85
2023-09-26T10:29:13.037;599616036709458690;9860.428;-347
2023-09-26T10:29:13.045;599616036717155984;9868.125;-704
2023-09-26T10:29:13.052;599616036724853278;9875.821;-755
2023-09-26T10:29:13.060;599616036732550572;9883.519;-383
2023-09-26T10:29:13.068;599616036740247866;9891.217;-34
2023-09-26T10:29:13.075;599616036747945160;9898.914;-48
2023-09-26T10:29:13.083;599616036755642454;9906.611;-128
2023-09-26T10:29:13.091;599616036763339748;9914.309;-70
2023-09-26T10:29:13.099;599616036771037042;9922.006;-53
2023-09-26T10:29:13.106;599616036778734336;9929.703;-87
2023-09-26T10:29:13.114;599616036786431630;9937.4;-77
2023-09-26T10:29:13.122;599616036794128924;9945.098;-65
2023-09-26T10:29:13.129;599616036801826218;9952.795;-89
2023-09-26T10:29:13.137;599616036809523512;9960.492;-99
2023-09-26T10:29:13.145;599616036817220806;9968.189;-85
2023-09-26T10:29:13.152;599616036824918100;9975.887;-77
2023-09-26T10:29:13.160;599616036832615394;9983.584;-82
2023-09-26T10:29:13.168;599616036840312688;9991.281;-99
2023-09-26T10:29:13.175;599616036848009982;9998.9795;-123
2023-09-26T10:29:13.183;599616036855707276;10006.677;-133
2023-09-26T10:29:13.191;599616036863404570;10014.373;-133
2023-09-26T10:29:13.199;599616036871101864;10022.07;-157
2023-09-26T10:29:13.206;599616036878799158;10029.768;-179
2023-09-26T10:29:13.214;599616036886496452;10037.465;-177
2023-09-26T10:29:13.222;599616036894193746;10045.162;-184
2023-09-26T10:29:13.229;599616036901891040;10052.86;-196
2023-09-26T10:29:13.237;599616036909588334;10060.558;-199
2023-09-26T10:29:13.245;599616036917285628;10068.255;-201
2023-09-26T10:29:13.252;599616036924982922;10075.952;-204
2023-09-26T10:29:13.260;599616036932680216;10083.648;-216
2023-09-26T10:29:13.268;599616036940377510;10091.346;-247
2023-09-26T10:29:13.276;599616036948074804;10099.043;-267
2023-09-26T10:29:13.283;599616036955772098;10106.741;-252
2023-09-26T10:29:13.291;599616036963469434;10114.438;-225
2023-09-26T10:29:13.299;599616036971166728;10122.136;-201
2023-09-26T10:29:13.306;599616036978864022;10129.833;-199
2023-09-26T10:29:13.314;599616036986561316;10137.53;-218
2023-09-26T10:29:13.322;599616036994258610;10145.228;-230
2023-09-26T10:29:13.329;599616037001955904;10152.924;-216
2023-09-26T10:29:13.337;599616037009653198;10160.621;-196
2023-09-26T10:29:13.345;599616037017350492;10168.319;-194
2023-09-26T10:29:13.353;599616037025047786;10176.017;-201
2023-09-26T10:29:13.360;599616037032745080;10183.714;-208
2023-09-26T10:29:13.368;599616037040442374;10191.411;-206
2023-09-26T10:29:13.376;599616037048139668;10199.108;-194
2023-09-26T10:29:13.383;599616037055836962;10206.806;-191
2023-09-26T10:29:13.391;599616037063534256;10214.504;-187
2023-09-26T10:29:13.399;599616037071231550;10222.2;-182
2023-09-26T10:29:13.406;599616037078928844;10229.897;-191
2023-09-26T10:29:13.414;599616037086626138;10237.595;-201
2023-09-26T10:29:13.422;599616037094323432;10245.292;-196
2023-09-26T10:29:13.429;599616037102020726;10252.989;-189
2023-09-26T10:29:13.437;599616037109718020;10260.687;-182
2023-09-26T10:29:13.445;599616037117415314;10268.384;-187
2023-09-26T10:29:13.453;599616037125112608;10276.082;-196
2023-09-26T10:29:13.460;599616037132809902;10283.779;-184
2023-09-26T10:29:13.468;599616037140507196;10291.476;-160
2023-09-26T10:29:13.476;599616037148204490;10299.173;-150
2023-09-26T10:29:13.483;599616037155901784;10306.87;-140
2023-09-26T10:29:13.491;599616037163599078;10314.567;-128
2023-09-26T10:29:13.499;599616037171296372;10322.265;-138
2023-09-26T10:29:13.506;599616037178993666;10329.963;-153
2023-09-26T10:29:13.514;599616037186690960;10337.66;-150
2023-09-26T10:29:13.522;599616037194388254;10345.357;-150
2023-09-26T10:29:13.530;599616037202085548;10353.055;-153
2023-09-26T10:29:13.537;599616037209782842;10360.751;-150
2023-09-26T10:29:13.545;599616037217480136;10368.448;-138
2023-09-26T10:29:13.553;599616037225177430;10376.1455;-119
2023-09-26T10:29:13.560;599616037232874724;10383.844;-106
2023-09-26T10:29:13.568;599616037240572018;10391.541;-97
2023-09-26T10:29:13.576;599616037248269312;10399.238;-89
2023-09-26T10:29:13.583;599616037255966606;10406.936;-97
2023-09-26T10:29:13.591;599616037263663900;10414.633;-102
2023-09-26T10:29:13.599;599616037271361194;10422.33;-85
2023-09-26T10:29:13.607;599616037279058488;10430.026;-43
2023-09-26T10:29:13.614;599616037286755782;10437.725;0
2023-09-26T10:29:13.622;599616037294453076;10445.422;-87
2023-09-26T10:29:13.630;599616037302150370;10453.119;-412
2023-09-26T10:29:13.637;599616037309847664;10460.816;-723
2023-09-26T10:29:13.645;599616037317544958;10468.514;-602
2023-09-26T10:29:13.653;599616037325242252;10476.211;-148
2023-09-26T10:29:13.660;599616037332939546;10483.908;53
2023-09-26T10:29:13.668;599616037340636840;10491.606;-55
2023-09-26T10:29:13.676;599616037348334134;10499.303;-82
2023-09-26T10:29:13.684;599616037356031428;10507.0;-21
2023-09-26T10:29:13.691;599616037363728722;10514.697;-24
2023-09-26T10:29:13.699;599616037371426016;10522.395;-55
2023-09-26T10:29:13.707;599616037379123310;10530.092;-75
2023-09-26T10:29:13.714;599616037386820604;10537.789;-80
2023-09-26T10:29:13.722;599616037394517898;10545.487;-82
2023-09-26T10:29:13.730;599616037402215192;10553.185;-87
2023-09-26T10:29:13.737;599616037409912486;10560.882;-82
2023-09-26T10:29:13.745;599616037417609780;10568.578;-70
2023-09-26T10:29:13.753;599616037425307074;10576.275;-70
2023-09-26T10:29:13.760;599616037433004368;10583.973;-77
2023-09-26T10:29:13.768;599616037440701662;10591.67;-80
2023-09-26T10:29:13.776;599616037448398956;10599.368;-82
2023-09-26T10:29:13.784;599616037456096250;10607.065;-87
2023-09-26T10:29:13.791;599616037463793544;10614.763;-87
2023-09-26T10:29:13.799;599616037471490838;10622.46;-92
2023-09-26T10:29:13.807;599616037479188132;10630.157;-106
2023-09-26T10:29:13.814;599616037486885426;10637.854;-119
2023-09-26T10:29:13.822;599616037494582720;10645.551;-133
2023-09-26T10:29:13.830;599616037502280014;10653.248;-153
2023-09-26T10:29:13.837;599616037509977308;10660.946;-162
2023-09-26T10:29:13.845;599616037517674602;10668.644;-172
2023-09-26T10:29:13.853;599616037525371936;10676.341;-199
2023-09-26T10:29:13.861;599616037533069230;10684.038;-225
2023-09-26T10:29:13.868;599616037540766524;10691.735;-235
2023-09-26T10:29:13.876;599616037548463818;10699.433;-235
2023-09-26T10:29:13.884;599616037556161112;10707.129;-213
2023-09-26T10:29:13.891;599616037563858406;10714.827;-184
2023-09-26T10:29:13.899;599616037571555700;10722.524;-172
2023-09-26T10:29:13.907;599616037579252994;10730.222;-170
2023-09-26T10:29:13.914;599616037586950288;10737.919;-165
2023-09-26T10:29:13.922;599616037594647582;10745.616;-157
2023-09-26T10:29:13.930;599616037602344876;10753.313;-145
2023-09-26T10:29:13.938;599616037610042170;10761.011;-148
2023-09-26T10:29:13.945;599616037617739464;10768.709;-172
2023-09-26T10:29:13.953;599616037625436758;10776.405;-191
2023-09-26T10:29:13.961;599616037633134052;10784.103;-174
2023-09-26T10:29:13.968;599616037640831346;10791.8;-157
2023-09-26T10:29:13.976;599616037648528640;10799.497;-157
2023-09-26T10:29:13.984;599616037656225934;10807.194;-150
2023-09-26T10:29:13.991;599616037663923228;10814.892;-148
2023-09-26T10:29:13.999;599616037671620522;10822.59;-153
2023-09-26T10:29:14.007;599616037679317816;10830.287;-148
2023-09-26T10:29:14.014;599616037687015110;10837.984;-140
2023-09-26T10:29:14.022;599616037694712404;10845.681;-138
2023-09-26T10:29:14.030;599616037702409698;10853.378;-131
2023-09-26T10:29:14.038;599616037710106992;10861.075;-128
2023-09-26T10:29:14.045;599616037717804286;10868.772;-128
2023-09-26T10:29:14.053;599616037725501580;10876.471;-131
2023-09-26T10:29:14.061;599616037733198874;10884.168;-131
2023-09-26T10:29:14.068;599616037740896168;10891.865;-121
2023-09-26T10:29:14.076;599616037748593462;10899.5625;-111
2023-09-26T10:29:14.084;599616037756290756;10907.26;-106
2023-09-26T10:29:14.091;599616037763988050;10914.956;-104
2023-09-26T10:29:14.099;599616037771685344;10922.653;-119
2023-09-26T10:29:14.107;599616037779382638;10930.352;-143
2023-09-26T10:29:14.115;599616037787079932;10938.049;-150
2023-09-26T10:29:14.122;599616037794777226;10945.746;-150
2023-09-26T10:29:14.130;599616037802474520;10953.443;-145
2023-09-26T10:29:14.138;599616037810171814;10961.141;-126
2023-09-26T10:29:14.145;599616037817869108;10968.838;-109
2023-09-26T10:29:14.153;599616037825566402;10976.535;-111
2023-09-26T10:29:14.161;599616037833263696;10984.232;-126
2023-09-26T10:29:14.168;599616037840960990;10991.93;-136
2023-09-26T10:29:14.176;599616037848658284;10999.627;-133
2023-09-26T10:29:14.184;599616037856355578;11007.324;-128
2023-09-26T10:29:14.192;599616037864052872;11015.021;-121
2023-09-26T10:29:14.199;599616037871750166;11022.719;-94
2023-09-26T10:29:14.207;599616037879447460;11030.416;-63
2023-09-26T10:29:14.215;599616037887144754;11038.114;-133
2023-09-26T10:29:14.222;599616037894842048;11045.812;-415
2023-09-26T10:29:14.230;599616037902539342;11053.508;-726
2023-09-26T10:29:14.238;599616037910236636;11061.205;-655
2023-09-26T10:29:14.245;599616037917933930;11068.902;-230
2023-09-26T10:29:14.253;599616037925631224;11076.6;2
2023-09-26T10:29:14.261;599616037933328518;11084.297;-77
2023-09-26T10:29:14.268;599616037941025812;11091.994;-102
2023-09-26T10:29:14.276;599616037948723106;11099.692;-38
2023-09-26T10:29:14.284;599616037956420400;11107.39;-48
2023-09-26T10:29:14.292;599616037964117694;11115.087;-72
2023-09-26T10:29:14.299;599616037971814988;11122.783;-65
2023-09-26T10:29:14.307;599616037979512282;11130.48;-63
2023-09-26T10:29:14.315;599616037987209576;11138.178;-70
2023-09-26T10:29:14.322;599616037994906870;11145.875;-68
2023-09-26T10:29:14.330;599616038002604164;11153.573;-63
2023-09-26T10:29:14.338;599616038010301458;11161.2705;-65
2023-09-26T10:29:14.345;599616038017998752;11168.968;-75
2023-09-26T10:29:14.353;599616038025696046;11176.665;-82
2023-09-26T10:29:14.361;599616038033393340;11184.362;-82
2023-09-26T10:29:14.369;599616038041090634;11192.059;-92
2023-09-26T10:29:14.376;599616038048787928;11199.756;-104
2023-09-26T10:29:14.384;599616038056485222;11207.454;-106
2023-09-26T10:29:14.392;599616038064182516;11215.151;-114
2023-09-26T10:29:14.399;599616038071879810;11222.849;-138
2023-09-26T10:29:14.407;599616038079577104;11230.546;-170
2023-09-26T10:29:14.415;599616038087274438;11238.243;-196
2023-09-26T10:29:14.422;599616038094971732;11245.94;-211
2023-09-26T10:29:14.430;599616038102669026;11253.638;-223
2023-09-26T10:29:14.438;599616038110366320;11261.336;-240
2023-09-26T10:29:14.446;599616038118063614;11269.032;-252
2023-09-26T10:29:14.453;599616038125760908;11276.7295;-255
2023-09-26T10:29:14.461;599616038133458202;11284.427;-250
2023-09-26T10:29:14.469;599616038141155496;11292.124;-238
2023-09-26T10:29:14.476;599616038148852790;11299.821;-223
2023-09-26T10:29:14.484;599616038156550084;11307.519;-228
2023-09-26T10:29:14.492;599616038164247378;11315.217;-221
2023-09-26T10:29:14.499;599616038171944672;11322.914;-184
2023-09-26T10:29:14.507;599616038179641966;11330.611;-160
2023-09-26T10:29:14.515;599616038187339260;11338.308;-155
2023-09-26T10:29:14.523;599616038195036554;11346.005;-143
2023-09-26T10:29:14.530;599616038202733848;11353.702;-131
2023-09-26T10:29:14.538;599616038210431142;11361.399;-128
2023-09-26T10:29:14.546;599616038218128436;11369.098;-128
2023-09-26T10:29:14.553;599616038225825730;11376.795;-128
2023-09-26T10:29:14.561;599616038233523024;11384.492;-126
2023-09-26T10:29:14.569;599616038241220318;11392.189;-121
2023-09-26T10:29:14.576;599616038248917612;11399.887;-114
2023-09-26T10:29:14.584;599616038256614906;11407.583;-106
2023-09-26T10:29:14.592;599616038264312200;11415.28;-104
2023-09-26T10:29:14.599;599616038272009494;11422.979;-104
2023-09-26T10:29:14.607;599616038279706788;11430.676;-99
2023-09-26T10:29:14.615;599616038287404082;11438.373;-94
2023-09-26T10:29:14.623;599616038295101376;11446.07;-99
2023-09-26T10:29:14.630;599616038302798670;11453.768;-102
2023-09-26T10:29:14.638;599616038310495964;11461.465;-94
2023-09-26T10:29:14.646;599616038318193258;11469.161;-94
2023-09-26T10:29:14.653;599616038325890552;11476.858;-109
2023-09-26T10:29:14.661;599616038333587846;11484.557;-116
2023-09-26T10:29:14.669;599616038341285140;11492.254;-111
2023-09-26T10:29:14.676;599616038348982434;11499.951;-106
2023-09-26T10:29:14.684;599616038356679728;11507.648;-99
2023-09-26T10:29:14.692;599616038364377022;11515.346;-89
2023-09-26T10:29:14.700;599616038372074316;11523.043;-97
2023-09-26T10:29:14.707;599616038379771610;11530.741;-126
2023-09-26T10:29:14.715;599616038387468904;11538.4375;-138
2023-09-26T10:29:14.723;599616038395166198;11546.135;-131
2023-09-26T10:29:14.730;599616038402863492;11553.832;-138
2023-09-26T10:29:14.738;599616038410560786;11561.529;-155
2023-09-26T10:29:14.746;599616038418258080;11569.227;-155
2023-09-26T10:29:14.753;599616038425955374;11576.924;-138
2023-09-26T10:29:14.761;599616038433652668;11584.621;-116
2023-09-26T10:29:14.769;599616038441349962;11592.319;-99
2023-09-26T10:29:14.777;599616038449047256;11600.017;-94
2023-09-26T10:29:14.784;599616038456744550;11607.713;-97
2023-09-26T10:29:14.792;599616038464441844;11615.41;-94
2023-09-26T10:29:14.800;599616038472139138;11623.107;-92
2023-09-26T10:29:14.807;599616038479836432;11630.805;-89
2023-09-26T10:29:14.815;599616038487533726;11638.502;-75
2023-09-26T10:29:14.823;599616038495231020;11646.2;-26
2023-09-26T10:29:14.830;599616038502928314;11653.897;12
2023-09-26T10:29:14.838;599616038510625608;11661.595;-119
2023-09-26T10:29:14.846;599616038518322902;11669.292;-444
2023-09-26T10:29:14.853;599616038526020196;11676.988;-655
2023-09-26T10:29:14.861;599616038533717490;11684.686;-446
2023-09-26T10:29:14.869;599616038541414784;11692.383;-55
2023-09-26T10:29:14.877;599616038549112078;11700.081;48
2023-09-26T10:29:14.884;599616038556809372;11707.778;-43
2023-09-26T10:29:14.892;599616038564506666;11715.476;-31
2023-09-26T10:29:14.900;599616038572203960;11723.173;0
2023-09-26T10:29:14.907;599616038579901254;11730.87;-29
2023-09-26T10:29:14.915;599616038587598548;11738.567;-26
2023-09-26T10:29:14.923;599616038595295842;11746.264;-12
2023-09-26T10:29:14.930;599616038602993136;11753.962;-29
2023-09-26T10:29:14.938;599616038610690430;11761.659;-38
2023-09-26T10:29:14.946;599616038618387724;11769.356;-41
2023-09-26T10:29:14.954;599616038626085018;11777.054;-63
2023-09-26T10:29:14.961;599616038633782312;11784.751;-68
2023-09-26T10:29:14.969;599616038641479606;11792.448;-58
2023-09-26T10:29:14.977;599616038649176940;11800.1455;-75
2023-09-26T10:29:14.984;599616038656874234;11807.844;-104
2023-09-26T10:29:14.992;599616038664571528;11815.541;-106
2023-09-26T10:29:15.000;599616038672268822;11823.237;-111
2023-09-26T10:29:15.007;599616038679966116;11830.935;-131
2023-09-26T10:29:15.015;599616038687663410;11838.632;-143
2023-09-26T10:29:15.023;599616038695360704;11846.329;-167
2023-09-26T10:29:15.031;599616038703057998;11854.026;-199
2023-09-26T10:29:15.038;599616038710755292;11861.725;-201
2023-09-26T10:29:15.046;599616038718452586;11869.422;-194
2023-09-26T10:29:15.054;599616038726149880;11877.119;-204
2023-09-26T10:29:15.061;599616038733847174;11884.816;-216
2023-09-26T10:29:15.069;599616038741544468;11892.513;-228
2023-09-26T10:29:15.077;599616038749241762;11900.21;-235
2023-09-26T10:29:15.084;599616038756939056;11907.907;-228
2023-09-26T10:29:15.092;599616038764636350;11915.605;-218
2023-09-26T10:29:15.100;599616038772333644;11923.303;-201
2023-09-26T10:29:15.107;599616038780030938;11931.0;-174
2023-09-26T10:29:15.115;599616038787728232;11938.697;-160
2023-09-26T10:29:15.123;599616038795425526;11946.395;-140
2023-09-26T10:29:15.131;599616038803122820;11954.092;-111
2023-09-26T10:29:15.138;599616038810820114;11961.788;-106
2023-09-26T10:29:15.146;599616038818517408;11969.485;-121
2023-09-26T10:29:15.154;599616038826214702;11977.184;-119
2023-09-26T10:29:15.161;599616038833911996;11984.881;-116
2023-09-26T10:29:15.169;599616038841609290;11992.578;-123
2023-09-26T10:29:15.177;599616038849306584;12000.275;-111
2023-09-26T10:29:15.184;599616038857003878;12007.973;-94
2023-09-26T10:29:15.192;599616038864701172;12015.67;-87
2023-09-26T10:29:15.200;599616038872398466;12023.368;-89
2023-09-26T10:29:15.208;599616038880095760;12031.064;-114
2023-09-26T10:29:15.215;599616038887793054;12038.762;-140
2023-09-26T10:29:15.223;599616038895490348;12046.459;-133
2023-09-26T10:29:15.231;599616038903187642;12054.156;-109
2023-09-26T10:29:15.238;599616038910884936;12061.854;-109
2023-09-26T10:29:15.246;599616038918582230;12069.551;-123
2023-09-26T10:29:15.254;599616038926279524;12077.248;-126
2023-09-26T10:29:15.261;599616038933976818;12084.946;-116
2023-09-26T10:29:15.269;599616038941674112;12092.644;-109
2023-09-26T10:29:15.277;599616038949371406;12100.34;-114
2023-09-26T10:29:15.285;599616038957068700;12108.037;-109
2023-09-26T10:29:15.292;599616038964765994;12115.734;-102
2023-09-26T10:29:15.300;599616038972463288;12123.432;-99
2023-09-26T10:29:15.308;599616038980160582;12131.129;-85
2023-09-26T10:29:15.315;599616038987857876;12138.827;-82
2023-09-26T10:29:15.323;599616038995555170;12146.524;-106
2023-09-26T10:29:15.331;599616039003252464;12154.222;-119
2023-09-26T10:29:15.338;599616039010949758;12161.919;-121
2023-09-26T10:29:15.346;599616039018647052;12169.615;-138
2023-09-26T10:29:15.354;599616039026344346;12177.3125;-131
2023-09-26T10:29:15.362;599616039034041640;12185.01;-97
2023-09-26T10:29:15.369;599616039041738934;12192.708;-87
2023-09-26T10:29:15.377;599616039049436228;12200.405;-97
2023-09-26T10:29:15.385;599616039057133522;12208.103;-102
2023-09-26T10:29:15.392;599616039064830816;12215.8;-114
2023-09-26T10:29:15.400;599616039072528110;12223.497;-114
2023-09-26T10:29:15.408;599616039080225404;12231.194;-99
2023-09-26T10:29:15.415;599616039087922698;12238.891;-85
2023-09-26T10:29:15.423;599616039095619992;12246.589;-48
2023-09-26T10:29:15.431;599616039103317286;12254.286;-12
2023-09-26T10:29:15.438;599616039111014580;12261.983;-111
2023-09-26T10:29:15.446;599616039118711874;12269.681;-400
2023-09-26T10:29:15.454;599616039126409168;12277.378;-626
2023-09-26T10:29:15.462;599616039134106462;12285.075;-463
2023-09-26T10:29:15.469;599616039141803756;12292.772;-77
2023-09-26T10:29:15.477;599616039149501050;12300.471;29
2023-09-26T10:29:15.485;599616039157198344;12308.167;-80
2023-09-26T10:29:15.492;599616039164895638;12315.864;-58
2023-09-26T10:29:15.500;599616039172592932;12323.562;-7
2023-09-26T10:29:15.508;599616039180290226;12331.259;-53
2023-09-26T10:29:15.515;599616039187987520;12338.956;-68
2023-09-26T10:29:15.523;599616039195684814;12346.653;-41
2023-09-26T10:29:15.531;599616039203382108;12354.352;-65
2023-09-26T10:29:15.539;599616039211109538;12362.078;-94
2023-09-26T10:29:15.546;599616039218806414;12369.775;-82
2023-09-26T10:29:15.554;599616039226503290;12377.472;-70
2023-09-26T10:29:15.562;599616039234200166;12385.168;-92
2023-09-26T10:29:15.569;599616039241897042;12392.866;-119
2023-09-26T10:29:15.577;599616039249593918;12400.5625;-126
2023-09-26T10:29:15.585;599616039257290794;12408.26;-133
2023-09-26T10:29:15.592;599616039264987670;12415.956;-145
2023-09-26T10:29:15.600;599616039272684546;12423.653;-148
2023-09-26T10:29:15.608;599616039280381422;12431.35;-172
2023-09-26T10:29:15.616;599616039288078298;12439.047;-211
2023-09-26T10:29:15.623;599616039295775174;12446.743;-208
2023-09-26T10:29:15.631;599616039303472050;12454.441;-216
2023-09-26T10:29:15.639;599616039311168926;12462.138;-255
2023-09-26T10:29:15.646;599616039318865802;12469.835;-262
2023-09-26T10:29:15.654;599616039326562678;12477.531;-247
2023-09-26T10:29:15.662;599616039334259554;12485.229;-264
2023-09-26T10:29:15.669;599616039341956430;12492.925;-281
2023-09-26T10:29:15.677;599616039349653306;12500.622;-274
2023-09-26T10:29:15.685;599616039357350182;12508.318;-267
2023-09-26T10:29:15.693;599616039365047058;12516.017;-259
2023-09-26T10:29:15.700;599616039372743934;12523.713;-240
2023-09-26T10:29:15.708;599616039380440810;12531.41;-230
2023-09-26T10:29:15.716;599616039388137686;12539.106;-230
2023-09-26T10:29:15.723;599616039395834562;12546.804;-216
2023-09-26T10:29:15.731;599616039403531438;12554.5;-191
2023-09-26T10:29:15.739;599616039411228314;12562.197;-177
2023-09-26T10:29:15.746;599616039418925190;12569.894;-174
2023-09-26T10:29:15.754;599616039426622066;12577.591;-170
2023-09-26T10:29:15.762;599616039434318942;12585.288;-172
2023-09-26T10:29:15.769;599616039442015818;12592.984;-167
2023-09-26T10:29:15.777;599616039449712694;12600.682;-153
2023-09-26T10:29:15.785;599616039457409570;12608.378;-145
2023-09-26T10:29:15.793;599616039465106446;12616.075;-145
2023-09-26T10:29:15.800;599616039472803322;12623.771;-140
2023-09-26T10:29:15.808;599616039480500198;12631.469;-143
2023-09-26T10:29:15.816;599616039488197074;12639.165;-143
2023-09-26T10:29:15.823;599616039495893950;12646.863;-133
2023-09-26T10:29:15.831;599616039503590826;12654.56;-136
2023-09-26T10:29:15.839;599616039511287702;12662.257;-140
2023-09-26T10:29:15.846;599616039518984578;12669.953;-138
2023-09-26T10:29:15.854;599616039526681454;12677.65;-131
2023-09-26T10:29:15.862;599616039534378330;12685.347;-138
2023-09-26T10:29:15.870;599616039542075206;12693.044;-148
2023-09-26T10:29:15.877;599616039549772082;12700.74;-148
2023-09-26T10:29:15.885;599616039557468958;12708.438;-153
2023-09-26T10:29:15.893;599616039565165834;12716.135;-157
2023-09-26T10:29:15.900;599616039572862710;12723.832;-148
2023-09-26T10:29:15.908;599616039580559586;12731.528;-133
2023-09-26T10:29:15.916;599616039588256462;12739.226;-119
2023-09-26T10:29:15.923;599616039595953338;12746.922;-119
2023-09-26T10:29:15.931;599616039603650214;12754.619;-143
2023-09-26T10:29:15.939;599616039611347090;12762.315;-165
2023-09-26T10:29:15.947;599616039619043966;12770.014;-170
2023-09-26T10:29:15.954;599616039626740842;12777.71;-172
2023-09-26T10:29:15.962;599616039634437718;12785.406;-167
2023-09-26T10:29:15.970;599616039642134594;12793.104;-153
2023-09-26T10:29:15.977;599616039649831470;12800.8;-136
2023-09-26T10:29:15.985;599616039657528346;12808.497;-128
2023-09-26T10:29:15.993;599616039665225222;12816.193;-138
2023-09-26T10:29:16.000;599616039672922098;12823.891;-138
2023-09-26T10:29:16.008;599616039680618974;12831.587;-131
2023-09-26T10:29:16.016;599616039688315850;12839.285;-126
2023-09-26T10:29:16.023;599616039696012726;12846.981;-116
2023-09-26T10:29:16.031;599616039703709602;12854.679;-82
2023-09-26T10:29:16.039;599616039711406478;12862.375;-43
2023-09-26T10:29:16.047;599616039719103354;12870.072;-131
2023-09-26T10:29:16.054;599616039726800230;12877.769;-405
2023-09-26T10:29:16.062;599616039734497106;12885.466;-636
2023-09-26T10:29:16.070;599616039742193982;12893.162;-502
2023-09-26T10:29:16.077;599616039749890858;12900.86;-153
2023-09-26T10:29:16.085;599616039757587734;12908.557;-34
2023-09-26T10:29:16.093;599616039765284610;12916.254;-106
2023-09-26T10:29:16.100;599616039772951426;12923.92;-92
2023-09-26T10:29:16.108;599616039780648720;12931.618;-58
2023-09-26T10:29:16.116;599616039788346014;12939.315;-94
2023-09-26T10:29:16.124;599616039796043308;12947.012;-119
2023-09-26T10:29:16.131;599616039803740602;12954.709;-123
2023-09-26T10:29:16.139;599616039811437896;12962.406;-133
2023-09-26T10:29:16.147;599616039819135190;12970.104;-155
2023-09-26T10:29:16.154;599616039826832484;12977.801;-196
2023-09-26T10:29:16.162;599616039834529778;12985.499;-218
2023-09-26T10:29:16.170;599616039842227072;12993.196;-206
2023-09-26T10:29:16.177;599616039849924366;13000.894;-201
2023-09-26T10:29:16.185;599616039857621660;13008.591;-221
2023-09-26T10:29:16.193;599616039865318954;13016.287;-230
2023-09-26T10:29:16.200;599616039873016248;13023.984;-228
2023-09-26T10:29:16.208;599616039880713542;13031.682;-240
2023-09-26T10:29:16.216;599616039888410836;13039.38;-272
2023-09-26T10:29:16.224;599616039896108130;13047.077;-301
2023-09-26T10:29:16.231;599616039903805424;13054.774;-301
2023-09-26T10:29:16.239;599616039911502718;13062.472;-296
2023-09-26T10:29:16.247;599616039919200012;13070.169;-303
2023-09-26T10:29:16.254;599616039926897306;13077.866;-303
2023-09-26T10:29:16.262;599616039934594600;13085.5625;-301
2023-09-26T10:29:16.270;599616039942291894;13093.261;-310
2023-09-26T10:29:16.277;599616039949989188;13100.958;-325
2023-09-26T10:29:16.285;599616039957686482;13108.655;-335
2023-09-26T10:29:16.293;599616039965383776;13116.353;-320
2023-09-26T10:29:16.301;599616039973081070;13124.05;-298
2023-09-26T10:29:16.308;599616039980778364;13131.747;-291
2023-09-26T10:29:16.316;599616039988475658;13139.444;-279
2023-09-26T10:29:16.324;599616039996172952;13147.143;-252
2023-09-26T10:29:16.331;599616040003870246;13154.839;-230
2023-09-26T10:29:16.339;599616040011567540;13162.536;-213
2023-09-26T10:29:16.347;599616040019264834;13170.233;-206
2023-09-26T10:29:16.354;599616040026962128;13177.931;-204
2023-09-26T10:29:16.362;599616040034659422;13185.628;-196
2023-09-26T10:29:16.370;599616040042356716;13193.325;-189
2023-09-26T10:29:16.378;599616040050054010;13201.023;-199
2023-09-26T10:29:16.385;599616040057751304;13208.721;-208
2023-09-26T10:29:16.393;599616040065448598;13216.418;-196
2023-09-26T10:29:16.401;599616040073145892;13224.114;-187
2023-09-26T10:29:16.408;599616040080843186;13231.812;-194
2023-09-26T10:29:16.416;599616040088540480;13239.509;-191
2023-09-26T10:29:16.424;599616040096237774;13247.206;-191
2023-09-26T10:29:16.431;599616040103935068;13254.903;-196
2023-09-26T10:29:16.439;599616040111632362;13262.602;-187
2023-09-26T10:29:16.447;599616040119329656;13270.299;-184
2023-09-26T10:29:16.454;599616040127026950;13277.996;-199
2023-09-26T10:29:16.462;599616040134724244;13285.693;-204
2023-09-26T10:29:16.470;599616040142421538;13293.39;-194
2023-09-26T10:29:16.478;599616040150118832;13301.087;-182
2023-09-26T10:29:16.485;599616040157816126;13308.784;-187
2023-09-26T10:29:16.493;599616040165513420;13316.482;-191
2023-09-26T10:29:16.501;599616040173210714;13324.18;-172
2023-09-26T10:29:16.508;599616040180908008;13331.877;-153
2023-09-26T10:29:16.516;599616040188605302;13339.574;-160
2023-09-26T10:29:16.524;599616040196302596;13347.271;-174
2023-09-26T10:29:16.531;599616040203999890;13354.969;-184
2023-09-26T10:29:16.539;599616040211697184;13362.665;-196
2023-09-26T10:29:16.547;599616040219394478;13370.363;-213
2023-09-26T10:29:16.555;599616040227091772;13378.061;-221
2023-09-26T10:29:16.562;599616040234789066;13385.758;-196
2023-09-26T10:29:16.570;599616040242486360;13393.455;-167
2023-09-26T10:29:16.578;599616040250183654;13401.152;-170
2023-09-26T10:29:16.585;599616040257880948;13408.85;-172
2023-09-26T10:29:16.593;599616040265578242;13416.547;-160
2023-09-26T10:29:16.601;599616040273275536;13424.245;-177
2023-09-26T10:29:16.608;599616040280972830;13431.941;-189
2023-09-26T10:29:16.616;599616040288670124;13439.639;-167
2023-09-26T10:29:16.624;599616040296367418;13447.336;-162
2023-09-26T10:29:16.632;599616040304064712;13455.033;-145
2023-09-26T10:29:16.639;599616040311762006;13462.73;-104
2023-09-26T10:29:16.647;599616040319459300;13470.428;-228
2023-09-26T10:29:16.655;599616040327156594;13478.126;-553
2023-09-26T10:29:16.662;599616040334853930;13485.823;-726
2023-09-26T10:29:16.670;599616040342551224;13493.5205;-493
2023-09-26T10:29:16.678;599616040350248518;13501.217;-162
2023-09-26T10:29:16.685;599616040357945812;13508.914;-116
2023-09-26T10:29:16.693;599616040365643106;13516.611;-191
2023-09-26T10:29:16.701;599616040373340400;13524.309;-153
2023-09-26T10:29:16.709;599616040381037694;13532.007;-136
2023-09-26T10:29:16.716;599616040388734988;13539.704;-177
2023-09-26T10:29:16.724;599616040396432282;13547.401;-189
2023-09-26T10:29:16.732;599616040404129576;13555.099;-211
2023-09-26T10:29:16.739;599616040411826870;13562.796;-247
2023-09-26T10:29:16.747;599616040419524164;13570.492;-242
2023-09-26T10:29:16.755;599616040427221458;13578.189;-213
2023-09-26T10:29:16.762;599616040434918752;13585.888;-223
2023-09-26T10:29:16.770;599616040442616046;13593.585;-257
2023-09-26T10:29:16.778;599616040450313340;13601.282;-267
2023-09-26T10:29:16.785;599616040458010634;13608.9795;-257
2023-09-26T10:29:16.793;599616040465707928;13616.677;-267
2023-09-26T10:29:16.801;599616040473405222;13624.374;-274
2023-09-26T10:29:16.809;599616040481102516;13632.071;-250
2023-09-26T10:29:16.816;599616040488799810;13639.768;-245
2023-09-26T10:29:16.824;599616040496497104;13647.466;-279
2023-09-26T10:29:16.832;599616040504194398;13655.163;-298
2023-09-26T10:29:16.839;599616040511891692;13662.86;-281
2023-09-26T10:29:16.847;599616040519588986;13670.558;-276
2023-09-26T10:29:16.855;599616040527286280;13678.255;-291
2023-09-26T10:29:16.862;599616040534983574;13685.952;-306
2023-09-26T10:29:16.870;599616040542680868;13693.65;-327
2023-09-26T10:29:16.878;599616040550378162;13701.348;-337
2023-09-26T10:29:16.886;599616040558075456;13709.044;-327
2023-09-26T10:29:16.893;599616040565772750;13716.741;-308
2023-09-26T10:29:16.901;599616040573470044;13724.438;-284
2023-09-26T10:29:16.909;599616040581167338;13732.136;-264
2023-09-26T10:29:16.916;599616040588864632;13739.833;-262
2023-09-26T10:29:16.924;599616040596561926;13747.53;-240
2023-09-26T10:29:16.932;599616040604259220;13755.229;-196
2023-09-26T10:29:16.939;599616040611956514;13762.926;-177
2023-09-26T10:29:16.947;599616040619653808;13770.623;-167
2023-09-26T10:29:16.955;599616040627351102;13778.319;-160
2023-09-26T10:29:16.963;599616040635048396;13786.017;-177
2023-09-26T10:29:16.970;599616040642745690;13793.714;-179
2023-09-26T10:29:16.978;599616040650442984;13801.411;-153
2023-09-26T10:29:16.986;599616040658140278;13809.109;-140
2023-09-26T10:29:16.993;599616040665837572;13816.807;-148
2023-09-26T10:29:17.001;599616040673534866;13824.504;-150
2023-09-26T10:29:17.009;599616040681232160;13832.201;-155
2023-09-26T10:29:17.016;599616040688929454;13839.898;-160
2023-09-26T10:29:17.024;599616040696626748;13847.595;-155
2023-09-26T10:29:17.032;599616040704324042;13855.292;-140
2023-09-26T10:29:17.039;599616040712021336;13862.99;-138
2023-09-26T10:29:17.047;599616040719718630;13870.6875;-157
2023-09-26T10:29:17.055;599616040727415924;13878.385;-172
2023-09-26T10:29:17.063;599616040735113218;13886.082;-157
2023-09-26T10:29:17.070;599616040742810512;13893.779;-138
2023-09-26T10:29:17.078;599616040750507806;13901.477;-143
2023-09-26T10:29:17.086;599616040758205100;13909.174;-157
2023-09-26T10:29:17.093;599616040765902394;13916.871;-157
2023-09-26T10:29:17.101;599616040773599688;13924.568;-148
2023-09-26T10:29:17.109;599616040781296982;13932.266;-133
2023-09-26T10:29:17.116;599616040788994276;13939.963;-140
2023-09-26T10:29:17.124;599616040796691570;13947.66;-170
2023-09-26T10:29:17.132;599616040804388864;13955.357;-189
2023-09-26T10:29:17.140;599616040812086158;13963.055;-206
2023-09-26T10:29:17.147;599616040819783452;13970.753;-218
2023-09-26T10:29:17.155;599616040827480746;13978.45;-196
2023-09-26T10:29:17.163;599616040835178040;13986.146;-162
2023-09-26T10:29:17.170;599616040842875334;13993.844;-150
2023-09-26T10:29:17.178;599616040850572628;14001.541;-148
2023-09-26T10:29:17.186;599616040858269922;14009.238;-155
2023-09-26T10:29:17.193;599616040865967216;14016.936;-172
2023-09-26T10:29:17.201;599616040873664510;14024.634;-167
2023-09-26T10:29:17.209;599616040881361804;14032.331;-155
2023-09-26T10:29:17.217;599616040889059098;14040.028;-140
2023-09-26T10:29:17.224;599616040896786528;14047.755;-94
2023-09-26T10:29:17.232;599616040904483404;14055.451;-72
2023-09-26T10:29:17.240;599616040912180280;14063.149;-230
2023-09-26T10:29:17.247;599616040919877156;14070.846;-563
2023-09-26T10:29:17.255;599616040927574032;14078.543;-774
2023-09-26T10:29:17.263;599616040935270908;14086.239;-570
2023-09-26T10:29:17.270;599616040942967784;14093.937;-165
2023-09-26T10:29:17.278;599616040950664660;14101.633;-60
2023-09-26T10:29:17.286;599616040958361536;14109.33;-167
2023-09-26T10:29:17.294;599616040966058412;14117.026;-131
2023-09-26T10:29:17.301;599616040973755288;14124.725;-72
2023-09-26T10:29:17.309;599616040981452164;14132.421;-126
2023-09-26T10:29:17.317;599616040989149040;14140.118;-155
2023-09-26T10:29:17.324;599616040996845916;14147.814;-153
2023-09-26T10:29:17.332;599616041004542792;14155.512;-184
2023-09-26T10:29:17.340;599616041012239668;14163.208;-206
2023-09-26T10:29:17.347;599616041019936544;14170.905;-196
2023-09-26T10:29:17.355;599616041027633420;14178.602;-196
2023-09-26T10:29:17.363;599616041035330296;14186.3;-225
2023-09-26T10:29:17.370;599616041043027172;14193.996;-247
2023-09-26T10:29:17.378;599616041050724048;14201.693;-250
2023-09-26T10:29:17.386;599616041058420924;14209.39;-240
2023-09-26T10:29:17.394;599616041066117800;14217.087;-238
2023-09-26T10:29:17.401;599616041073814676;14224.783;-247
2023-09-26T10:29:17.409;599616041081511552;14232.48;-245
2023-09-26T10:29:17.417;599616041089208428;14240.177;-235
2023-09-26T10:29:17.424;599616041096905304;14247.874;-238
2023-09-26T10:29:17.432;599616041104602180;14255.571;-238
2023-09-26T10:29:17.440;599616041112299056;14263.268;-233
2023-09-26T10:29:17.447;599616041119995932;14270.965;-245
2023-09-26T10:29:17.455;599616041127692808;14278.661;-274
2023-09-26T10:29:17.463;599616041135389684;14286.358;-298
2023-09-26T10:29:17.471;599616041143086560;14294.055;-291
2023-09-26T10:29:17.478;599616041150783436;14301.752;-272
2023-09-26T10:29:17.486;599616041158480312;14309.448;-284
2023-09-26T10:29:17.494;599616041166177188;14317.146;-286
2023-09-26T10:29:17.501;599616041173874064;14324.843;-245
2023-09-26T10:29:17.509;599616041181570940;14332.54;-208
2023-09-26T10:29:17.517;599616041189267816;14340.236;-194
2023-09-26T10:29:17.524;599616041196964692;14347.934;-172
2023-09-26T10:29:17.532;599616041204661568;14355.63;-145
2023-09-26T10:29:17.540;599616041212358444;14363.327;-128
2023-09-26T10:29:17.548;599616041220055320;14371.023;-126
2023-09-26T10:29:17.555;599616041227752196;14378.722;-140
2023-09-26T10:29:17.563;599616041235449072;14386.418;-150
2023-09-26T10:29:17.571;599616041243145948;14394.115;-133
2023-09-26T10:29:17.578;599616041250842824;14401.812;-111
2023-09-26T10:29:17.586;599616041258539700;14409.509;-116
2023-09-26T10:29:17.594;599616041266236576;14417.205;-133
2023-09-26T10:29:17.601;599616041273933452;14424.902;-148
2023-09-26T10:29:17.609;599616041281630328;14432.599;-155
2023-09-26T10:29:17.617;599616041289327204;14440.296;-150
2023-09-26T10:29:17.624;599616041297024080;14447.993;-138
2023-09-26T10:29:17.632;599616041304720956;14455.689;-140
2023-09-26T10:29:17.640;599616041312417832;14463.387;-155
2023-09-26T10:29:17.648;599616041320114708;14471.083;-148
2023-09-26T10:29:17.655;599616041327811584;14478.78;-138
2023-09-26T10:29:17.663;599616041335508460;14486.477;-148
2023-09-26T10:29:17.671;599616041343205336;14494.174;-148
2023-09-26T10:29:17.678;599616041350902212;14501.87;-143
2023-09-26T10:29:17.686;599616041358599088;14509.568;-133
2023-09-26T10:29:17.694;599616041366295964;14517.265;-123
2023-09-26T10:29:17.701;599616041373992840;14524.962;-131
2023-09-26T10:29:17.709;599616041381689716;14532.658;-140
2023-09-26T10:29:17.717;599616041389386592;14540.355;-143
2023-09-26T10:29:17.725;599616041397083468;14548.052;-160
2023-09-26T10:29:17.732;599616041404780344;14555.749;-182
2023-09-26T10:29:17.740;599616041412477220;14563.445;-196
2023-09-26T10:29:17.748;599616041420174096;14571.144;-201
2023-09-26T10:29:17.755;599616041427870972;14578.84;-179
2023-09-26T10:29:17.763;599616041435567848;14586.537;-157
2023-09-26T10:29:17.771;599616041443264724;14594.233;-172
2023-09-26T10:29:17.778;599616041450961600;14601.931;-177
2023-09-26T10:29:17.786;599616041458628416;14609.598;-157
2023-09-26T10:29:17.794;599616041466325710;14617.295;-157
2023-09-26T10:29:17.801;599616041474023004;14624.991;-165
2023-09-26T10:29:17.809;599616041481720298;14632.688;-145
2023-09-26T10:29:17.817;599616041489417592;14640.386;-97
2023-09-26T10:29:17.825;599616041497114886;14648.083;-63
2023-09-26T10:29:17.832;599616041504812180;14655.781;-208
2023-09-26T10:29:17.840;599616041512509474;14663.479;-558
2023-09-26T10:29:17.848;599616041520206768;14671.176;-801
2023-09-26T10:29:17.855;599616041527904062;14678.873;-634
2023-09-26T10:29:17.863;599616041535601356;14686.57;-255
2023-09-26T10:29:17.871;599616041543298650;14694.267;-114
2023-09-26T10:29:17.878;599616041550995944;14701.964;-184
2023-09-26T10:29:17.886;599616041558693238;14709.662;-167
2023-09-26T10:29:17.894;599616041566390532;14717.359;-121
2023-09-26T10:29:17.902;599616041574087826;14725.057;-157
2023-09-26T10:29:17.909;599616041581785120;14732.754;-184
2023-09-26T10:29:17.917;599616041589482414;14740.451;-167
2023-09-26T10:29:17.925;599616041597179708;14748.148;-167
2023-09-26T10:29:17.932;599616041604877002;14755.846;-187
2023-09-26T10:29:17.940;599616041612574296;14763.543;-194
2023-09-26T10:29:17.948;599616041620271590;14771.24;-199
2023-09-26T10:29:17.955;599616041627968884;14778.9375;-196
2023-09-26T10:29:17.963;599616041635666178;14786.635;-170
2023-09-26T10:29:17.971;599616041643363472;14794.332;-165
2023-09-26T10:29:17.979;599616041651060766;14802.029;-187
2023-09-26T10:29:17.986;599616041658758060;14809.727;-191
2023-09-26T10:29:17.994;599616041666455354;14817.425;-189
2023-09-26T10:29:18.002;599616041674152648;14825.122;-201
2023-09-26T10:29:18.009;599616041681849942;14832.818;-201
2023-09-26T10:29:18.017;599616041689547236;14840.516;-194
2023-09-26T10:29:18.025;599616041697244530;14848.213;-208
2023-09-26T10:29:18.032;599616041704941824;14855.91;-230
2023-09-26T10:29:18.040;599616041712639118;14863.607;-235
2023-09-26T10:29:18.048;599616041720336412;14871.306;-242
2023-09-26T10:29:18.056;599616041728033706;14879.003;-252
2023-09-26T10:29:18.063;599616041735731000;14886.7;-250
2023-09-26T10:29:18.071;599616041743428294;14894.397;-245
2023-09-26T10:29:18.079;599616041751125588;14902.094;-255
2023-09-26T10:29:18.086;599616041758822882;14909.791;-250
2023-09-26T10:29:18.094;599616041766520176;14917.488;-218
2023-09-26T10:29:18.102;599616041774217470;14925.187;-191
2023-09-26T10:29:18.109;599616041781914764;14932.884;-177
2023-09-26T10:29:18.117;599616041789612058;14940.581;-162
2023-09-26T10:29:18.125;599616041797309352;14948.278;-145
2023-09-26T10:29:18.132;599616041805006646;14955.976;-131
2023-09-26T10:29:18.140;599616041812703940;14963.673;-116
2023-09-26T10:29:18.148;599616041820401234;14971.369;-109
2023-09-26T10:29:18.156;599616041828098528;14979.066;-109
2023-09-26T10:29:18.163;599616041835795822;14986.765;-114
2023-09-26T10:29:18.171;599616041843493116;14994.462;-116
2023-09-26T10:29:18.179;599616041851190410;15002.159;-114
2023-09-26T10:29:18.186;599616041858887704;15009.856;-111
2023-09-26T10:29:18.194;599616041866584998;15017.554;-102
2023-09-26T10:29:18.202;599616041874282292;15025.251;-97
2023-09-26T10:29:18.209;599616041881979586;15032.949;-99
2023-09-26T10:29:18.217;599616041889676880;15040.6455;-102
2023-09-26T10:29:18.225;599616041897374174;15048.343;-97
2023-09-26T10:29:18.233;599616041905071468;15056.04;-92
2023-09-26T10:29:18.240;599616041912768762;15063.737;-94
2023-09-26T10:29:18.248;599616041920466056;15071.435;-114
2023-09-26T10:29:18.256;599616041928163350;15079.132;-136
2023-09-26T10:29:18.263;599616041935860644;15086.829;-133
2023-09-26T10:29:18.271;599616041943557938;15094.527;-116
2023-09-26T10:29:18.279;599616041951255232;15102.225;-94
2023-09-26T10:29:18.286;599616041958952526;15109.921;-72
2023-09-26T10:29:18.294;599616041966649820;15117.618;-80
2023-09-26T10:29:18.302;599616041974347114;15125.315;-114
2023-09-26T10:29:18.310;599616041982044408;15133.013;-138
2023-09-26T10:29:18.317;599616041989741702;15140.71;-133
2023-09-26T10:29:18.325;599616041997438996;15148.408;-128
2023-09-26T10:29:18.333;599616042005136290;15156.105;-123
2023-09-26T10:29:18.340;599616042012833584;15163.803;-111
2023-09-26T10:29:18.348;599616042020561014;15171.529;-111
2023-09-26T10:29:18.356;599616042028257890;15179.227;-121
2023-09-26T10:29:18.363;599616042035954766;15186.924;-119
2023-09-26T10:29:18.371;599616042043651642;15194.62;-106
2023-09-26T10:29:18.379;599616042051348518;15202.317;-99
2023-09-26T10:29:18.387;599616042059045394;15210.014;-102
2023-09-26T10:29:18.394;599616042066742270;15217.711;-102
2023-09-26T10:29:18.402;599616042074439146;15225.407;-72
2023-09-26T10:29:18.410;599616042082136022;15233.1045;-9
2023-09-26T10:29:18.417;599616042089832898;15240.802;-48
2023-09-26T10:29:18.425;599616042097529774;15248.499;-332
2023-09-26T10:29:18.433;599616042105226650;15256.195;-682
2023-09-26T10:29:18.440;599616042112923526;15263.893;-697
2023-09-26T10:29:18.448;599616042120620402;15271.589;-303
2023-09-26T10:29:18.456;599616042128317278;15279.286;-2
2023-09-26T10:29:18.463;599616042136014154;15286.982;-48
2023-09-26T10:29:18.471;599616042143711030;15294.68;-97
2023-09-26T10:29:18.479;599616042151407906;15302.376;-31
2023-09-26T10:29:18.487;599616042159104782;15310.074;-46
2023-09-26T10:29:18.494;599616042166801658;15317.7705;-94
2023-09-26T10:29:18.502;599616042174498534;15325.468;-82
2023-09-26T10:29:18.510;599616042182195410;15333.164;-77
2023-09-26T10:29:18.517;599616042189892286;15340.861;-97
2023-09-26T10:29:18.525;599616042197589162;15348.558;-99
2023-09-26T10:29:18.533;599616042205286038;15356.255;-109
2023-09-26T10:29:18.540;599616042212982914;15363.951;-119
2023-09-26T10:29:18.548;599616042220679790;15371.649;-106
2023-09-26T10:29:18.556;599616042228376666;15379.346;-99
2023-09-26T10:29:18.564;599616042236073542;15387.042;-106
2023-09-26T10:29:18.571;599616042243770418;15394.739;-114
2023-09-26T10:29:18.579;599616042251467294;15402.436;-123
2023-09-26T10:29:18.587;599616042259164170;15410.133;-136
2023-09-26T10:29:18.594;599616042266861046;15417.829;-145
2023-09-26T10:29:18.602;599616042274557922;15425.526;-148
2023-09-26T10:29:18.610;599616042282254798;15433.224;-153
2023-09-26T10:29:18.617;599616042289951674;15440.921;-165
2023-09-26T10:29:18.625;599616042297648550;15448.617;-184
2023-09-26T10:29:18.633;599616042305345426;15456.314;-196
2023-09-26T10:29:18.641;599616042313042302;15464.011;-191
2023-09-26T10:29:18.648;599616042320739178;15471.708;-194
2023-09-26T10:29:18.656;599616042328436054;15479.404;-204
2023-09-26T10:29:18.664;599616042336132930;15487.102;-206
2023-09-26T10:29:18.671;599616042343829806;15494.798;-199
2023-09-26T10:29:18.679;599616042351526682;15502.496;-177
2023-09-26T10:29:18.687;599616042359223558;15510.192;-143
2023-09-26T10:29:18.694;599616042366920434;15517.89;-114
2023-09-26T10:29:18.702;599616042374617310;15525.586;-94
2023-09-26T10:29:18.710;599616042382314186;15533.283;-87
2023-09-26T10:29:18.717;599616042390011062;15540.9795;-80
2023-09-26T10:29:18.725;599616042397707938;15548.677;-68
2023-09-26T10:29:18.733;599616042405404814;15556.373;-60
2023-09-26T10:29:18.741;599616042413101690;15564.071;-70
2023-09-26T10:29:18.748;599616042420798566;15571.768;-89
2023-09-26T10:29:18.756;599616042428495442;15579.464;-111
2023-09-26T10:29:18.764;599616042436192318;15587.161;-119
2023-09-26T10:29:18.771;599616042443889194;15594.857;-104
2023-09-26T10:29:18.779;599616042451586070;15602.555;-94
2023-09-26T10:29:18.787;599616042459282946;15610.251;-89
2023-09-26T10:29:18.794;599616042466979822;15617.948;-80
2023-09-26T10:29:18.802;599616042474676698;15625.6455;-87
2023-09-26T10:29:18.810;599616042482373574;15633.343;-102
2023-09-26T10:29:18.818;599616042490070450;15641.039;-94
2023-09-26T10:29:18.825;599616042497767326;15648.736;-75
2023-09-26T10:29:18.833;599616042505464202;15656.433;-80
2023-09-26T10:29:18.841;599616042513161078;15664.13;-102
2023-09-26T10:29:18.848;599616042520857954;15671.826;-106
2023-09-26T10:29:18.856;599616042528554830;15679.523;-97
2023-09-26T10:29:18.864;599616042536251706;15687.221;-92
2023-09-26T10:29:18.871;599616042543948582;15694.918;-85
2023-09-26T10:29:18.879;599616042551645458;15702.614;-70
2023-09-26T10:29:18.887;599616042559342334;15710.312;-72
2023-09-26T10:29:18.895;599616042567039210;15718.008;-97
2023-09-26T10:29:18.902;599616042574736086;15725.705;-116
2023-09-26T10:29:18.910;599616042582402902;15733.372;-119
2023-09-26T10:29:18.918;599616042590100196;15741.069;-119
2023-09-26T10:29:18.925;599616042597797490;15748.767;-104
2023-09-26T10:29:18.933;599616042605494784;15756.463;-80
2023-09-26T10:29:18.941;599616042613192078;15764.16;-77
2023-09-26T10:29:18.948;599616042620889372;15771.858;-85
2023-09-26T10:29:18.956;599616042628586666;15779.556;-75
2023-09-26T10:29:18.964;599616042636283960;15787.253;-65
2023-09-26T10:29:18.971;599616042643981254;15794.95;-72
2023-09-26T10:29:18.979;599616042651678548;15802.647;-82
2023-09-26T10:29:18.987;599616042659375842;15810.345;-102
2023-09-26T10:29:18.995;599616042667073136;15818.042;-75
2023-09-26T10:29:19.002;599616042674770430;15825.738;-4
2023-09-26T10:29:19.010;599616042682467724;15833.437;-82
2023-09-26T10:29:19.018;599616042690165018;15841.134;-400
2023-09-26T10:29:19.025;599616042697862312;15848.831;-682
2023-09-26T10:29:19.033;599616042705559606;15856.528;-566
2023-09-26T10:29:19.041;599616042713256900;15864.226;-160
2023-09-26T10:29:19.048;599616042720954194;15871.923;24
2023-09-26T10:29:19.056;599616042728651488;15879.621;-63
2023-09-26T10:29:19.064;599616042736348782;15887.318;-68
2023-09-26T10:29:19.072;599616042744046076;15895.015;-9
2023-09-26T10:29:19.079;599616042751743370;15902.712;-51
2023-09-26T10:29:19.087;599616042759440664;15910.409;-97
2023-09-26T10:29:19.095;599616042767137958;15918.106;-87
2023-09-26T10:29:19.102;599616042774835252;15925.804;-89
2023-09-26T10:29:19.110;599616042782532546;15933.501;-111
2023-09-26T10:29:19.118;599616042790229840;15941.199;-111
2023-09-26T10:29:19.125;599616042797927134;15948.896;-106
2023-09-26T10:29:19.133;599616042805624428;15956.593;-111
2023-09-26T10:29:19.141;599616042813321722;15964.29;-116
2023-09-26T10:29:19.148;599616042821019016;15971.987;-116
2023-09-26T10:29:19.156;599616042828716310;15979.685;-116
2023-09-26T10:29:19.164;599616042836413604;15987.382;-116
2023-09-26T10:29:19.172;599616042844110898;15995.08;-126
2023-09-26T10:29:19.179;599616042851808192;16002.777;-128
2023-09-26T10:29:19.187;599616042859505486;16010.475;-121
2023-09-26T10:29:19.195;599616042867202780;16018.172;-131
2023-09-26T10:29:19.202;599616042874900074;16025.868;-145
2023-09-26T10:29:19.210;599616042882597368;16033.565;-150
2023-09-26T10:29:19.218;599616042890294662;16041.263;-157
2023-09-26T10:29:19.225;599616042897991956;16048.961;-172
2023-09-26T10:29:19.233;599616042905689250;16056.658;-177
